1459246070.00
64.000000
-0.00
-0.00
-0.00
-0.00
-0.00
-0.00
-0.00
-0.00
-0.00
-0.00
0.00
0.01
0.01
-0.00
-0.03
-0.05
-0.05
0.00
0.14
0.36
0.66
1.00
1.36
1.71
2.06
2.43
2.84
3.30
3.81
4.32
4.77
5.13
5.41
5.67
5.98
6.41
6.98
7.78
8.69
9.65
10.56
11.43
12.34
13.44
14.88
16.72
19.09
21.74
24.41
26.90
29.16
31.36
33.86
36.99
40.87
45.68
50.94
56.19
61.05
65.51
69.89
74.79
80.69
87.76
96.10
104.99
113.73
121.91
129.55
137.16
145.48
155.43
165.02
175.82
188.08
202.16
217.60
232.34
242.64
243.90
232.19
205.88
166.72
118.19
64.42
8.48
-47.99
-103.95
-157.43
-205.00
-242.27
-265.39
-273.47
-268.71
-255.35
-237.70
-218.46
-198.49
-178.22
-159.34
-145.46
-141.57
-151.71
-176.81
-214.09
-258.00
-302.40
-342.55
-376.08
-402.53
-422.25
-435.11
-440.15
-436.02
-421.77
-397.49
-364.34
-324.18
-279.00
-230.58
-180.22
-128.96
-77.84
-28.10
18.86
61.60
98.97
130.34
155.75
175.76
191.14
202.66
210.81
215.83
217.78
216.75
213.02
207.09
199.61
191.22
182.41
173.44
164.38
155.19
145.83
136.35
126.90
117.68
108.84
100.51
92.67
85.29
78.30
71.65
65.30
59.26
53.56
48.21
43.22
38.58
34.29
30.32
26.67
23.33
20.27
17.51
15.02
12.79
10.81
9.07
7.55
6.24
5.12
4.16
3.36
2.70
2.16
1.71
1.36
1.09
0.87
0.72
0.60
0.52
0.47
0.45
0.44
0.45
0.47
0.49
0.53
0.57
0.62
0.68
0.74
0.81
0.89
0.97
1.06
1.16
1.26
1.38
1.51
1.65
1.80
1.97
2.16
2.37
2.60
2.86
3.15
3.46
3.81
4.19
4.61
5.07
5.57
6.11
6.70
7.33
8.01
8.74
9.51
10.34
11.22
12.16
13.13
14.17
15.28
16.45
17.68
18.97
20.29
21.62
22.89
24.04
24.98
25.62
25.83
25.55
24.69
23.23
21.19
18.61
15.56
12.20
8.67
5.12
1.65
-1.70
-4.85
-7.74
-10.31
-12.55
-14.36
-15.80
-16.91
-17.76
-18.38
-18.73
-18.77
-18.37
-17.44
-15.83
-13.56
-10.67
-7.32
-3.67
0.23
4.32
8.60
13.07
17.91
22.90
27.83
32.23
35.77
38.40
40.24
41.62
42.92
44.95
47.45
50.22
52.36
53.31
53.04
51.76
50.09
48.73
49.24
51.30
54.64
58.05
60.84
63.12
65.01
67.06
69.50
73.59
77.52
79.46
76.56
67.03
50.37
26.02
-6.24
-47.97
-93.74
-143.20
-185.92
-213.84
-222.35
-211.89
-187.74
-155.43
-131.68
-116.02
-108.65
-111.18
-127.90
-163.08
-209.33
-259.34
-302.85
-329.05
-328.08
-298.67
-245.88
-179.96
-111.42
-47.60
7.38
53.63
93.27
130.13
165.35
199.15
230.39
257.22
277.26
287.15
285.02
271.25
249.43
223.27
196.26
170.39
146.37
124.37
104.14
85.94
69.68
54.58
38.07
16.86
-12.06
-50.47
-98.72
-156.08
-220.24
-287.06
-350.43
-403.52
-440.48
-458.51
-458.72
-445.60
-424.95
-401.30
-376.72
-350.87
-322.41
-290.29
-254.85
-217.69
-181.32
-148.54
-121.44
-100.87
-85.71
-73.36
-60.97
-46.82
-30.93
-14.41
1.91
17.87
32.57
42.43
40.45
18.38
-28.69
-97.93
-177.80
-251.69
-304.62
-329.28
-327.88
-309.47
-284.40
-259.48
-236.43
-213.41
-188.13
-159.78
-129.55
-99.25
-69.98
-41.62
-13.12
16.53
47.62
79.50
110.84
140.24
166.68
189.73
209.46
226.37
241.10
254.38
266.97
279.56
292.76
307.18
323.36
341.63
361.60
381.59
398.68
409.49
411.71
405.60
394.36
382.91
375.55
373.77
375.62
376.80
373.08
362.41
345.82
326.52
307.98
292.13
278.45
264.42
246.67
222.28
189.74
149.49
103.73
55.76
8.87
-34.84
-74.95
-112.24
-147.22
-178.69
-203.21
-216.10
-213.65
-195.32
-164.62
-128.07
-92.67
-63.11
-40.33
-22.06
-4.87
13.60
33.58
53.61
71.94
87.84
102.13
116.60
133.06
152.52
174.97
199.58
224.82
248.46
267.66
279.27
280.62
270.53
249.86
221.23
187.95
152.66
116.40
78.68
38.34
-5.23
-51.22
-97.36
-140.58
-178.12
-208.42
-231.46
-248.38
-260.79
-269.94
-276.11
-278.70
-276.58
-268.65
-254.22
-233.10
-205.50
-171.80
-132.56
-88.61
-41.35
7.27
54.88
99.11
138.41
172.56
202.86
231.23
258.97
285.29
306.85
318.70
316.16
296.96
262.36
216.85
166.33
116.20
69.83
28.33
-9.10
-44.64
-81.18
-121.51
-166.91
-215.49
-261.37
-295.32
-307.55
-291.42
-246.51
-179.27
-101.25
-25.53
36.76
78.59
97.70
96.30
80.14
57.44
36.96
25.64
26.29
36.92
51.97
65.20
72.42
73.00
68.89
62.59
55.26
46.41
35.10
21.63
8.25
-1.64
-5.26
-2.10
5.73
14.31
19.84
20.07
14.89
6.02
-4.00
-12.65
-18.06
-19.39
-16.91
-12.00
-6.77
-3.53
-4.08
-9.14
-18.20
-29.94
-42.66
-54.83
-65.08
-71.95
-73.50
-67.44
-51.63
-25.05
11.48
54.99
100.92
144.23
180.69
207.65
224.52
232.25
232.74
228.24
220.98
213.01
206.20
202.13
201.85
205.65
212.95
222.44
232.47
241.44
248.15
251.97
252.62
250.13
244.49
235.61
223.37
207.87
189.67
169.76
149.43
129.77
111.27
93.63
75.88
56.99
36.44
14.70
-6.81
-26.30
-42.52
-55.53
-66.98
-79.60
-96.16
-118.21
-145.31
-175.26
-204.82
-231.24
-253.37
-272.10
-290.17
-311.33
-339.32
-376.54
-422.62
-473.13
-519.46
-550.72
-557.21
-534.75
-487.08
-425.20
-363.30
-313.07
-279.51
-259.83
-246.05
-229.06
-202.15
-162.57
-111.40
-52.66
7.47
61.64
102.91
126.70
132.54
123.87
106.53
86.06
65.66
46.19
27.44
9.79
-5.27
-16.38
-24.13
-32.07
-45.96
-71.43
-111.14
-162.98
-220.13
-272.88
-311.40
-328.73
-322.56
-295.35
-252.80
-201.55
-147.12
-93.15
-42.11
3.38
39.77
63.22
71.31
64.92
48.61
29.31
13.75
5.76
5.16
8.31
10.44
8.08
0.81
-8.89
-17.24
-21.32
-20.73
-17.66
-15.62
-17.40
-23.66
-32.61
-41.29
-47.25
-49.98
-51.06
-53.11
-58.18
-66.39
-75.75
-83.03
-85.35
-81.69
-73.37
-63.46
-55.18
-50.24
-48.06
-46.13
-41.49
-32.24
-18.44
-1.66
16.11
33.58
50.36
66.26
80.15
89.45
90.79
81.58
61.85
35.18
7.87
-13.32
-23.83
-23.07
-14.45
-3.43
5.12
9.05
9.22
8.29
8.67
11.16
14.92
18.60
21.46
23.60
25.12
25.03
20.88
10.02
-8.49
-32.41
-56.47
-74.40
-82.01
-79.46
-71.44
-64.85
-65.33
-74.45
-88.82
-101.59
-105.37
-95.44
-71.57
-38.07
-2.06
29.44
51.78
64.11
68.83
70.04
71.59
76.40
86.50
103.57
128.78
161.48
197.49
228.49
243.98
235.87
203.41
155.19
106.38
72.08
59.93
66.57
79.48
83.39
67.58
30.25
-22.23
-79.86
-134.18
-181.20
-220.48
-252.25
-274.65
-283.16
-273.23
-243.74
-199.40
-149.96
-107.06
-79.34
-69.02
-71.24
-76.65
-75.58
-61.79
-34.41
2.49
41.74
75.54
97.74
105.44
99.84
85.74
69.91
58.52
54.71
57.52
62.85
66.00
64.18
57.81
49.66
42.74
37.98
33.67
26.38
13.20
-6.46
-30.39
-54.37
-73.90
-85.51
-87.44
-79.47
-62.44
-37.70
-6.83
28.34
65.49
101.56
132.73
155.05
165.50
163.23
150.34
131.66
113.24
100.17
94.61
95.14
97.74
97.94
92.86
82.34
68.45
54.31
42.68
35.37
32.93
34.72
38.65
41.21
38.24
26.43
5.34
-21.72
-48.35
-67.61
-75.07
-70.74
-59.01
-46.53
-39.36
-40.67
-50.14
-64.70
-80.19
-92.63
-99.13
-98.17
-89.63
-74.43
-54.14
-30.55
-5.31
19.97
43.62
63.79
78.73
87.54
90.84
91.14
92.33
98.32
111.38
130.84
152.89
171.74
181.74
179.42
164.78
140.93
112.55
83.85
57.14
32.68
9.64
-12.47
-32.91
-49.81
-60.99
-65.03
-61.98
-53.19
-41.00
-28.28
-17.95
-12.58
-13.80
-21.88
-35.40
-51.34
-65.59
-73.52
-70.97
-55.42
-27.32
9.13
46.41
75.67
89.55
84.69
62.90
30.33
-4.73
-34.61
-54.23
-61.75
-58.14
-46.09
-28.82
-9.29
10.17
27.82
42.00
51.00
53.32
48.46
37.97
25.48
15.54
11.51
13.85
19.92
25.39
26.64
22.32
13.68
3.48
-5.62
-12.17
-16.04
-17.87
-18.46
-18.33
-17.68
-16.31
-13.75
-9.29
-2.20
7.83
20.34
34.18
47.97
60.67
71.87
81.37
88.66
92.53
91.30
83.62
69.44
50.34
29.39
10.18
-4.07
-11.26
-10.85
-3.76
7.64
19.85
28.87
31.12
24.50
9.14
-12.77
-37.90
-63.11
-86.26
-106.44
-123.36
-136.58
-144.86
-146.23
-138.55
-120.20
-90.77
-51.31
-4.43
45.86
94.45
135.79
164.88
178.54
176.45
161.66
139.79
117.52
100.79
92.97
94.00
100.62
107.36
107.90
96.44
69.00
24.71
-33.04
-96.23
-153.23
-191.61
-202.08
-181.91
-136.18
-76.02
-14.60
37.24
73.67
94.11
101.17
98.21
87.89
72.68
55.95
42.61
38.17
46.47
67.67
97.68
129.61
156.49
173.69
179.64
174.80
160.07
135.60
101.25
58.07
9.88
-36.59
-73.30
-93.82
-95.99
-82.86
-61.74
-41.48
-29.60
-30.12
-43.20
-66.21
-95.47
-128.00
-162.58
-199.81
-241.08
-286.84
-335.26
-381.79
-420.00
-443.75
-449.30
-436.44
-407.86
-367.55
-319.02
-264.83
-207.34
-150.22
-99.25
-61.56
-43.29
-47.00
-70.12
-105.40
-143.24
-174.89
-194.98
-202.50
-200.07
-191.69
-180.54
-167.73
-152.51
-133.51
-110.23
-83.60
-55.34
-26.64
2.92
35.03
71.47
112.58
156.54
199.95
239.45
273.47
303.03
331.34
362.53
400.23
446.26
499.74
556.70
610.36
652.40
675.44
675.98
656.45
624.90
591.92
566.30
551.26
543.63
536.26
522.24
498.63
467.58
434.58
405.24
382.38
365.11
349.85
332.37
309.69
280.86
246.44
207.42
164.42
117.41
66.28
11.66
-44.25
-97.84
-144.99
-182.57
-209.72
-228.13
-241.34
-253.13
-265.96
-280.18
-294.43
-306.54
-315.00
-319.68
-322.03
-324.57
-330.23
-341.73
-360.80
-387.12
-417.27
-444.81
-461.66
-460.67
-438.44
-396.53
-340.82
-278.97
-217.56
-160.12
-107.27
-58.09
-11.61
32.58
74.60
114.91
154.20
192.86
230.12
263.72
290.51
307.41
312.09
303.57
282.09
249.02
206.50
157.28
104.26
50.32
-2.28
-52.28
-99.36
-144.30
-188.89
-235.91
-288.43
-348.34
-414.36
-480.98
-538.97
-577.95
-590.06
-572.83
-529.81
-468.88
-399.68
-331.48
-272.18
-227.78
-201.62
-193.45
-199.04
-211.49
-223.58
-230.71
-232.38
-231.57
-232.30
-236.96
-245.61
-256.45
-267.14
-275.50
-279.57
-277.57
-268.28
-251.47
-228.43
-202.25
-176.98
-155.69
-138.63
-123.12
-105.00
-80.86
-49.28
-11.18
29.88
68.64
100.28
123.00
138.29
150.06
162.45
179.09
202.43
232.09
263.91
290.43
303.80
297.76
270.46
225.76
174.94
137.36
133.35
172.78
246.00
327.90
391.29
425.61
433.65
423.99
405.68
384.10
360.33
329.35
291.64
251.79
215.89
187.15
165.38
148.73
135.83
127.30
125.96
135.91
158.69
191.46
227.15
258.10
279.70
291.24
294.60
292.25
286.63
278.85
269.07
256.66
241.36
223.79
205.05
186.36
168.97
154.65
144.96
140.67
141.02
143.95
146.73
146.92
143.01
134.71
122.99
109.29
95.04
81.27
68.84
58.30
49.75
42.48
35.00
25.33
11.68
-6.73
-29.34
-54.42
-79.88
-104.06
-126.39
-147.37
-168.00
-188.98
-210.16
-230.38
-247.95
-261.52
-270.79
-276.78
-281.52
-287.17
-295.20
-305.85
-318.37
-331.55
-344.68
-358.05
-372.97
-391.52
-416.09
-448.96
-491.81
-544.63
-604.62
-665.56
-718.61
-754.53
-766.74
-753.54
-718.46
-668.42
-610.61
-550.02
-488.61
-426.24
-362.49
-297.96
-234.17
-172.50
-112.97
-53.78
8.09
75.35
148.79
226.23
302.41
370.43
423.83
458.55
473.83
471.92
456.68
432.27
402.06
368.28
332.18
294.18
254.37
213.09
171.69
132.92
100.39
77.37
65.18
62.53
65.93
71.70
77.60
83.58
91.06
101.55
115.59
132.78
152.59
174.81
199.43
225.71
251.42
273.08
287.20
291.77
287.13
275.74
260.71
244.64
228.95
214.11
200.09
186.65
172.80
156.33
134.02
102.41
58.98
2.98
-64.33
-139.72
-218.07
-292.56
-355.60
-400.60
-424.56
-429.71
-422.92
-412.78
-405.76
-404.01
-405.85
-408.46
-410.47
-412.59
-415.62
-418.01
-414.96
-400.07
-368.49
-319.54
-256.95
-186.98
-116.04
-48.74
12.53
66.86
114.19
154.78
188.89
216.57
237.62
251.85
259.79
263.08
264.21
265.76
269.29
274.88
281.26
286.38
287.89
283.75
272.68
254.84
232.28
208.39
186.49
168.22
152.79
137.89
122.04
106.26
94.05
89.01
91.79
98.46
101.91
95.50
76.78
48.98
19.19
-5.50
-21.47
-29.77
-34.51
-39.69
-46.68
-53.70
-57.52
-55.93
-49.54
-41.70
-36.89
-38.39
-46.55
-58.62
-70.05
-76.45
-75.21
-66.02
-50.18
-29.25
-3.94
26.26
62.58
105.70
154.78
207.10
258.39
303.73
338.51
359.49
365.88
359.86
346.50
332.52
323.93
323.46
329.22
335.19
333.78
319.21
289.87
248.51
200.42
150.87
103.56
61.02
25.85
1.35
-9.40
-5.89
7.87
23.63
31.89
26.39
7.67
-16.94
-37.24
-45.58
-40.85
-28.48
-16.64
-11.38
-13.61
-19.94
-26.17
-30.83
-36.27
-46.56
-63.84
-85.79
-106.17
-118.14
-118.28
-108.86
-96.66
-89.37
-91.90
-104.45
-123.14
-142.63
-158.51
-168.53
-172.16
-169.63
-161.24
-147.66
-130.66
-113.37
-99.57
-92.08
-91.47
-95.66
-100.89
-103.49
-101.53
-95.29
-86.79
-78.67
-72.92
-70.00
-68.58
-66.46
-61.85
-54.52
-46.08
-39.19
-36.02
-37.03
-40.90
-45.54
-49.33
-51.66
-52.39
-51.36
-48.37
-44.25
-41.71
-45.12
-58.59
-83.20
-115.15
-146.34
-167.38
-171.32
-156.05
-124.21
-81.35
-33.55
14.17
58.31
96.59
127.97
153.10
174.36
195.23
218.63
245.14
272.02
293.87
304.86
301.51
284.42
258.07
228.59
200.80
176.21
152.91
127.48
97.71
64.50
31.77
4.56
-13.54
-22.34
-25.06
-27.01
-33.62
-48.49
-72.67
-104.54
-140.53
-176.20
-207.54
-232.07
-249.22
-260.22
-267.47
-273.75
-281.67
-293.37
-310.06
-331.52
-355.60
-378.16
-393.80
-397.22
-384.95
-356.91
-317.34
-274.15
-236.85
-213.28
-206.31
-211.81
-219.68
-217.87
-197.78
-158.31
-106.28
-52.86
-8.22
22.99
42.94
58.27
76.11
100.75
132.46
168.31
204.08
235.94
261.38
278.98
287.74
286.69
275.28
254.31
226.90
198.46
175.43
162.72
161.19
166.71
171.61
168.08
151.30
121.27
81.95
39.00
-2.68
-40.09
-71.94
-97.60
-116.41
-127.54
-130.45
-125.46
-113.99
-98.11
-79.62
-59.20
-36.11
-9.01
22.65
57.31
90.94
117.95
133.26
134.15
121.30
98.11
68.85
36.89
3.42
-32.55
-73.57
-122.27
-179.88
-244.87
-312.40
-375.08
-425.12
-456.90
-468.89
-463.70
-446.18
-420.83
-389.99
-353.88
-312.19
-265.78
-217.37
-170.32
-126.75
-86.06
-45.08
0.70
55.17
120.01
193.66
270.97
344.08
404.08
443.42
458.22
449.32
421.59
381.76
335.73
286.60
234.23
176.54
112.08
42.38
-26.94
-87.30
-129.97
-149.23
-144.58
-120.62
-84.79
-43.92
-1.57
41.99
87.75
135.06
180.11
216.87
239.72
246.07
237.24
217.20
190.66
161.56
132.82
106.59
84.94
69.88
62.79
63.78
71.33
82.46
93.15
99.02
96.03
81.18
53.17
12.80
-37.32
-93.41
-151.23
-206.63
-255.77
-295.07
-321.75
-334.80
-335.65
-328.18
-317.70
-309.11
-305.29
-306.20
-309.08
-309.56
-303.20
-287.18
-261.28
-228.13
-192.24
-158.30
-129.30
-105.53
-84.66
-62.78
-36.12
-2.58
37.46
81.29
124.55
162.52
191.56
210.16
219.22
221.41
219.77
216.64
213.33
210.38
208.38
208.22
210.45
214.29
217.34
216.29
208.51
193.37
172.46
148.48
123.32
96.68
65.93
27.57
-20.28
-75.94
-133.50
-184.19
-219.03
-232.12
-222.88
-196.18
-160.46
-124.73
-95.57
-75.59
-63.71
-56.50
-50.04
-41.04
-27.58
-9.49
11.78
33.86
54.51
72.73
89.30
105.84
123.27
140.41
153.95
159.70
154.69
138.37
112.28
78.82
40.06
-2.09
-44.82
-84.05
-115.66
-138.03
-153.97
-169.96
-192.36
-223.28
-258.06
-286.98
-300.10
-292.17
-264.62
-223.79
-176.97
-129.29
-83.41
-41.41
-6.92
14.75
19.37
7.04
-16.08
-39.38
-51.77
-46.39
-23.08
12.02
49.35
79.85
97.65
101.20
92.53
75.83
55.85
36.86
22.10
13.51
11.82
16.23
24.52
33.23
38.23
35.92
24.78
6.45
-14.41
-31.56
-39.74
-36.78
-24.12
-5.49
15.24
35.83
56.07
76.53
96.99
115.47
128.81
134.18
130.54
119.00
101.99
82.14
61.60
42.36
26.91
18.18
18.27
26.66
39.37
50.09
53.07
46.11
31.68
15.19
1.59
-7.60
-14.94
-24.84
-40.41
-61.33
-84.20
-104.73
-120.26
-130.64
-137.26
-140.94
-140.68
-133.87
-117.81
-91.47
-56.32
-15.91
25.64
65.06
100.96
133.78
165.08
196.68
230.06
266.30
305.97
348.96
393.98
438.09
476.70
504.31
515.94
508.60
482.18
439.27
384.20
321.65
255.73
189.47
124.77
62.55
2.72
-55.72
-114.24
-173.87
-233.92
-291.02
-339.41
-372.30
-383.96
-371.80
-337.33
-285.78
-224.65
-161.98
-104.81
-58.26
-24.89
-4.80
3.93
4.35
-0.39
-7.82
-16.37
-24.80
-31.49
-34.30
-31.19
-21.62
-7.25
8.23
20.55
27.05
27.92
26.00
25.47
29.90
40.90
57.97
79.11
101.93
124.26
144.04
159.02
166.62
164.55
151.86
130.00
102.77
75.33
52.50
37.43
31.49
34.95
47.67
69.10
97.40
128.71
157.36
177.48
185.17
180.10
165.16
144.74
122.31
99.18
74.95
49.43
23.91
0.95
-17.29
-31.04
-43.37
-59.95
-87.01
-128.80
-185.13
-250.50
-314.94
-366.66
-395.54
-395.26
-365.94
-314.08
-250.18
-184.88
-125.62
-75.05
-31.58
8.62
52.05
103.09
162.25
225.93
287.94
341.50
380.59
400.51
397.84
376.46
341.08
295.78
243.49
187.36
132.16
83.45
45.59
20.10
15.45
37.61
87.92
161.99
251.38
346.74
439.65
523.65
594.61
663.49
740.85
830.25
924.81
1010.88
1076.01
1114.42
1128.13
1060.97
887.63
619.68
305.73
2.87
-252.79
-450.84
-596.11
-690.84
-752.10
-781.84
-781.34
-756.57
-719.79
-685.35
-662.98
-654.32
-655.73
-662.31
-661.16
-643.82
-608.83
-556.91
-494.09
-428.50
-368.42
-324.52
-297.30
-276.87
-253.17
-217.22
-166.26
-103.29
-33.96
35.91
101.88
161.57
216.36
266.54
309.39
338.76
347.72
333.03
297.60
249.33
197.85
150.81
110.99
76.87
44.80
11.86
-22.23
-55.82
-87.49
-117.60
-148.78
-183.94
-223.80
-265.82
-304.64
-333.84
-348.17
-344.84
-323.47
-285.60
-233.73
-171.38
-103.96
-39.23
13.68
46.65
55.34
40.87
9.30
-30.80
-71.33
-106.92
-135.32
-156.44
-170.61
-177.64
-176.86
-167.72
-150.48
-126.37
-97.29
-65.42
-32.87
-1.53
27.34
53.15
75.98
96.32
114.49
130.34
143.32
152.90
159.22
162.95
165.13
166.52
166.68
163.88
155.56
139.61
115.60
85.20
51.19
16.31
-17.74
-50.54
-82.27
-112.82
-141.22
-165.89
-185.59
-200.50
-211.31
-218.05
-219.19
-212.09
-194.27
-164.63
-123.89
-74.36
-21.28
29.51
72.28
101.46
111.75
99.27
63.83
10.66
-50.07
-109.38
-158.65
-191.10
-203.24
-196.10
-175.17
-148.00
-121.59
-100.71
-93.70
-105.66
-136.19
-179.02
-224.96
-266.20
-297.89
-319.08
-332.73
-352.53
-390.93
-452.55
-531.82
-616.40
-694.01
-755.85
-797.86
-773.57
-661.87
-477.45
-266.65
-78.44
60.10
145.82
191.13
214.13
231.40
245.32
252.52
249.51
235.08
215.90
198.74
188.60
187.61
195.71
204.94
208.24
204.11
197.67
197.32
209.62
238.16
279.07
327.29
373.80
411.39
437.14
452.93
463.13
471.60
480.74
491.54
504.53
517.26
526.24
527.69
518.02
493.98
452.98
393.72
317.50
229.78
138.64
53.39
-18.12
-72.31
-110.77
-138.44
-161.62
-184.56
-207.06
-225.17
-233.45
-227.51
-205.49
-168.03
-116.79
-56.01
7.19
64.03
106.07
127.70
128.42
113.09
83.42
46.87
12.63
-12.31
-25.61
-28.70
-24.92
-17.46
-9.38
-3.28
-0.13
-0.34
-3.56
-8.57
-13.61
-17.87
-20.89
-24.80
-32.00
-43.47
-59.40
-79.22
-101.43
-124.04
-146.23
-167.93
-190.38
-215.58
-245.43
-281.58
-324.67
-373.73
-419.80
-454.64
-471.21
-466.05
-440.26
-398.81
-348.79
-296.72
-246.59
-199.47
-155.56
-114.80
-77.98
-46.38
-20.63
0.08
18.06
36.32
57.37
81.73
109.10
139.01
171.47
206.50
242.63
275.63
298.66
304.60
288.94
252.57
201.32
142.96
83.56
25.76
-30.11
-83.03
-128.91
-161.10
-173.24
-163.00
-133.99
-94.58
-54.22
-19.66
6.94
27.20
44.44
61.47
79.49
98.39
117.67
137.31
157.78
179.70
202.71
224.64
241.55
249.24
245.31
230.75
210.01
188.98
172.09
160.08
149.87
136.81
117.66
92.34
63.52
34.47
6.84
-19.94
-47.42
-76.06
-103.83
-126.56
-139.67
-140.12
-127.32
-102.81
-69.62
-31.80
5.67
37.34
58.47
66.85
64.02
54.93
45.63
40.38
39.88
42.01
44.09
45.28
46.94
50.76
55.67
56.08
43.55
11.21
-41.40
-106.11
-168.23
-212.09
-227.07
-210.86
-169.14
-112.04
-50.01
8.72
58.61
95.92
118.04
123.85
114.68
94.95
71.30
50.71
38.03
34.61
38.40
45.45
51.72
54.76
54.37
52.20
50.71
51.63
55.03
59.01
60.46
56.77
47.17
33.24
18.56
7.17
2.36
5.71
16.79
32.94
49.48
60.52
60.50
46.42
19.76
-13.15
-42.77
-59.64
-58.16
-38.81
-7.85
25.19
51.07
63.63
60.99
45.00
19.79
-9.80
-39.24
-64.96
-84.20
-94.50
-93.74
-80.54
-55.45
-21.93
13.55
42.99
59.53
60.03
46.51
25.45
5.21
-7.29
-9.01
-1.48
10.55
21.53
27.21
25.95
18.57
7.50
-4.44
-15.10
-23.89
-31.77
-40.47
-51.30
-63.86
-75.84
-83.74
-84.60
-77.36
-63.28
-44.88
-24.56
-3.82
16.70
36.21
53.20
65.76
72.55
73.71
70.84
65.93
60.10
53.40
45.53
37.00
29.74
26.16
27.54
32.47
36.99
36.33
27.49
10.99
-9.25
-27.56
-39.10
-41.59
-35.83
-24.65
-11.38
1.34
11.77
18.69
21.04
17.91
9.26
-3.40
-16.84
-26.88
-29.88
-24.17
-10.79
6.92
24.57
38.31
46.15
48.34
46.74
43.65
40.52
37.37
33.15
26.68
17.61
6.88
-3.70
-12.58
-19.35
-25.00
-31.05
-38.38
-46.56
-54.18
-59.92
-63.45
-65.55
-67.17
-68.42
-67.98
-63.71
-53.76
-37.82
-17.43
4.66
25.62
43.56
57.75
68.22
75.14
78.55
78.52
75.46
70.07
63.43
56.78
51.36
48.27
48.07
50.26
53.05
53.54
48.53
35.72
14.90
-11.69
-39.71
-64.23
-81.38
-89.61
-89.93
-85.01
-77.85
-70.53
-63.79
-57.30
-50.41
-42.81
-34.94
-27.84
-22.58
-19.55
-18.22
-17.04
-14.23
-8.49
0.24
10.44
19.30
23.59
21.03
11.63
-2.00
-15.41
-24.22
-26.04
-21.48
-13.45
-5.60
-0.40
1.81
2.51
3.48
5.39
7.17
6.67
1.96
-7.66
-21.44
-37.65
-54.28
-69.37
-80.82
-86.27
-83.60
-71.50
-50.59
-23.80
4.03
27.36
41.64
44.53
36.35
19.57
-2.09
-24.66
-44.57
-59.00
-66.24
-65.88
-58.84
-47.08
-32.99
-18.58
-5.08
7.22
18.46
28.66
37.31
43.60
47.02
47.99
48.10
49.51
53.89
61.42
70.42
77.61
79.05
71.52
53.72
27.09
-4.44
-35.67
-61.96
-80.68
-91.62
-96.32
-96.74
-94.26
-89.37
-82.31
-73.76
-65.14
-58.42
-55.36
-57.07
-63.90
-75.68
-91.65
-109.98
-127.28
-138.74
-139.46
-126.37
-99.83
-63.98
-25.66
7.82
30.71
40.22
36.95
24.33
7.46
-8.33
-18.82
-21.84
-17.48
-7.29
7.01
24.55
45.75
71.40
101.36
133.70
165.03
191.88
212.29
226.55
236.51
244.07
249.84
252.85
251.61
245.35
235.02
223.10
212.59
205.79
203.25
203.56
203.53
199.19
186.98
164.89
133.29
94.96
54.37
16.09
-16.53
-42.48
-63.08
-81.29
-100.70
-124.73
-156.16
-196.66
-245.86
-300.24
-352.75
-393.57
-412.66
-403.18
-364.35
-302.53
-229.46
-158.53
-100.49
-60.70
-38.61
-29.64
-27.87
-28.19
-27.28
-23.33
-15.46
-3.49
11.87
28.87
44.99
57.72
65.81
69.76
71.52
73.34
76.61
81.29
86.22
89.92
91.42
90.53
87.46
82.29
74.80
64.83
52.98
41.04
31.75
27.77
30.45
38.92
50.04
59.38
62.73
57.37
42.98
21.53
-3.36
-27.42
-46.86
-59.02
-62.67
-58.12
-47.09
-32.39
-17.43
-5.50
1.16
2.08
-1.13
-5.41
-7.53
-5.43
0.99
10.09
19.51
27.30
32.41
34.52
33.46
29.00
21.09
10.40
-1.49
-12.61
-21.37
-27.27
-30.92
-33.30
-35.00
-35.74
-34.89
-32.35
-29.16
-27.30
-28.70
-34.06
-42.28
-50.87
-57.15
-59.46
-57.59
-52.33
-44.43
-34.13
-21.39
-7.19
5.67
13.01
11.12
-0.79
-19.34
-37.89
-49.64
-50.99
-43.46
-32.76
-25.72
-26.60
-35.13
-46.90
-55.78
-56.86
-48.35
-31.87
-11.23
9.26
26.24
37.84
43.78
44.91
42.69
38.87
35.20
33.17
33.77
37.28
43.07
49.68
55.17
57.77
56.49
51.66
44.80
38.14
33.71
32.65
34.77
38.64
42.26
43.83
42.38
38.08
32.02
25.89
21.53
20.43
23.41
30.54
41.00
53.21
65.18
74.88
80.75
82.19
79.68
74.56
68.32
61.91
55.14
46.76
35.08
19.04
-0.77
-21.81
-40.35
-53.01
-58.35
-57.67
-54.42
-52.59
-54.92
-61.88
-71.77
-81.93
-90.09
-95.32
-97.82
-98.22
-96.78
-93.18
-86.99
-78.44
-68.78
-59.95
-53.58
-50.12
-48.34
-45.84
-40.30
-30.87
-18.86
-7.33
0.35
2.31
-0.78
-5.80
-8.61
-5.89
3.28
17.20
32.45
45.33
53.31
55.54
52.71
46.27
37.86
28.91
20.54
13.59
8.45
4.95
2.38
-0.16
-3.39
-7.56
-12.61
-18.60
-26.20
-36.50
-50.27
-66.96
-84.13
-97.73
-103.53
-98.85
-83.83
-61.68
-37.48
-16.46
-2.34
3.37
1.34
-6.36
-17.03
-27.93
-36.69
-41.77
-42.76
-40.75
-38.09
-37.82
-42.62
-53.75
-70.31
-89.16
-105.70
-115.17
-114.25
-102.21
-81.40
-56.56
-33.37
-16.37
-7.33
-4.61
-3.89
-0.10
10.45
28.52
51.77
76.01
96.97
111.94
120.24
122.87
121.44
117.33
111.29
103.75
95.11
85.98
77.10
69.06
62.14
56.18
50.78
45.50
40.07
34.55
29.33
25.11
22.75
23.10
26.76
34.03
44.82
58.54
73.99
89.30
102.21
110.73
113.96
112.82
109.92
108.61
111.58
119.40
130.11
139.88
144.59
141.51
130.32
113.08
93.27
74.46
59.48
50.04
46.93
50.25
59.14
71.36
82.97
88.70
83.40
63.80
30.08
-13.76
-60.99
-104.29
-137.97
-159.42
-169.13
-169.73
-164.42
-155.74
-145.06
-133.13
-120.94
-110.41
-104.33
-105.42
-114.99
-131.88
-152.37
-171.03
-182.38
-182.39
-169.46
-144.34
-109.53
-68.42
-24.75
17.74
55.48
85.45
105.75
116.09
117.78
113.05
104.22
93.00
80.54
67.80
56.11
47.11
42.22
41.93
45.44
50.95
56.36
59.72
59.47
54.50
44.24
29.10
10.76
-8.05
-24.31
-35.94
-42.64
-45.64
-46.80
-47.38
-47.42
-46.15
-42.85
-37.78
-32.31
-28.28
-27.02
-28.51
-31.19
-32.48
-29.83
-21.67
-8.20
8.63
25.66
39.39
46.92
46.61
38.42
23.88
5.78
-12.47
-27.59
-37.31
-40.75
-38.45
-31.87
-22.82
-13.01
-3.87
3.38
7.75
8.61
5.90
0.25
-7.15
-14.88
-21.66
-26.62
-29.25
-29.24
-26.30
-20.33
-11.64
-1.27
9.13
17.71
23.11
24.90
23.61
20.40
16.51
12.95
10.43
9.55
10.75
14.27
19.78
26.19
31.78
34.65
33.22
26.56
14.45
-2.65
-23.47
-45.83
-66.69
-82.61
-90.79
-90.14
-81.93
-69.46
-56.79
-47.13
-41.54
-38.76
-36.09
-30.92
-22.09
-10.34
2.23
13.33
21.55
26.75
29.68
31.07
30.97
28.63
22.96
13.19
-0.76
-18.17
-37.87
-58.45
-78.26
-95.42
-108.02
-114.67
-115.26
-111.52
-106.74
-104.98
-109.96
-123.85
-146.61
-175.78
-206.79
-233.62
-249.98
-250.61
-232.54
-195.94
-144.53
-85.09
-26.07
24.63
62.11
86.09
101.17
115.09
135.46
166.59
207.95
254.74
300.01
337.08
361.25
370.76
366.93
354.08
338.58
326.98
323.37
327.14
332.32
329.66
310.56
270.99
213.72
147.64
84.54
35.04
5.60
-2.68
6.69
27.33
51.80
73.15
85.82
86.21
73.34
49.94
22.86
1.73
-4.14
10.12
41.85
81.09
114.19
129.21
120.56
89.98
44.18
-9.55
-66.74
-126.30
-188.15
-250.27
-307.13
-350.96
-375.32
-378.31
-363.68
-339.03
-312.17
-287.78
-266.58
-247.09
-228.51
-212.69
-203.17
-202.29
-208.12
-213.45
-207.70
-180.97
-128.14
-51.22
40.82
134.78
216.85
276.14
306.99
309.43
288.16
250.62
205.20
159.70
120.62
92.70
78.57
78.47
89.92
108.20
127.48
142.71
151.03
152.38
148.54
141.47
131.67
117.44
95.86
64.49
23.40
-24.00
-71.38
-111.23
-137.27
-146.39
-139.37
-120.23
-94.97
-69.65
-48.94
-35.26
-29.05
-29.67
-36.36
-48.39
-64.53
-82.12
-96.75
-103.44
-98.70
-82.24
-57.31
-29.06
-2.05
21.16
39.69
52.87
59.06
56.25
44.10
25.77
7.82
-2.33
0.02
14.84
37.93
63.45
86.92
106.50
122.09
133.49
139.15
136.56
123.94
101.66
72.74
41.74
12.79
-12.08
-33.42
-53.22
-73.06
-92.07
-106.25
-109.61
-96.65
-65.32
-18.98
33.68
81.06
112.35
120.96
106.37
73.41
29.95
-15.80
-57.42
-90.85
-113.72
-124.53
-121.88
-104.19
-70.42
-21.03
40.82
108.71
173.56
225.63
257.24
265.39
252.62
225.79
193.06
160.54
130.33
100.95
69.41
33.78
-5.25
-44.74
-80.83
-110.73
-133.83
-151.86
-168.25
-187.24
-213.18
-249.33
-296.81
-353.48
-413.57
-468.42
-508.70
-527.21
-521.36
-493.97
-452.14
-404.44
-358.06
-316.81
-280.80
-247.61
-214.07
-177.22
-134.66
-84.45
-25.48
41.32
111.72
177.87
229.88
259.09
262.00
242.74
212.36
185.04
172.66
180.46
205.76
240.37
275.12
304.02
326.00
343.52
359.37
373.74
383.33
382.69
366.98
334.63
288.42
234.65
181.01
134.00
97.26
71.11
53.50
41.27
31.45
21.71
10.34
-4.02
-22.21
-44.12
-68.15
-91.06
-108.63
-116.68
-112.45
-95.59
-68.39
-35.27
-1.44
28.52
51.96
68.74
80.74
90.41
98.98
105.33
106.23
98.19
79.62
52.31
21.15
-7.78
-29.70
-42.93
-49.17
-52.36
-56.68
-64.95
-77.67
-93.17
-108.21
-119.25
-123.63
-120.58
-111.96
-101.91
-95.56
-97.09
-108.00
-126.33
-147.31
-165.02
-174.48
-173.04
-160.62
-138.93
-110.46
-77.68
-43.15
-10.07
17.42
34.63
37.71
25.56
1.16
-28.53
-54.47
-68.67
-67.25
-51.79
-28.33
-4.75
12.49
20.32
18.99
10.39
-3.49
-21.25
-41.23
-60.21
-73.00
-74.26
-61.05
-35.12
-3.32
24.76
40.29
38.03
17.15
-19.89
-69.34
-127.07
-188.27
-247.09
-296.28
-328.50
-338.70
-326.13
-294.44
-250.40
-200.85
-150.06
-99.86
-49.25
4.12
62.12
124.44
188.17
246.71
291.99
317.15
316.54
289.53
241.38
182.13
123.44
76.05
44.29
27.51
22.26
21.11
17.82
9.19
-5.27
-25.13
-49.06
-79.98
-120.65
-170.32
-227.99
-288.88
-345.36
-390.04
-419.34
-432.83
-438.16
-443.58
-425.48
-365.43
-256.82
-111.12
47.18
176.26
269.62
329.01
359.40
367.46
359.11
336.59
301.39
255.40
201.12
143.86
84.90
25.05
-34.16
-93.67
-153.40
-210.01
-257.09
-287.15
-293.13
-275.53
-239.79
-193.40
-145.34
-102.30
-67.02
-38.91
-16.05
4.44
23.24
41.30
61.36
86.84
121.20
166.90
223.50
286.55
347.96
396.62
422.05
417.58
381.95
319.59
239.49
152.85
70.66
1.79
-47.85
-74.74
-77.54
-57.38
-19.07
28.24
71.78
98.17
96.40
62.32
0.09
-78.69
-158.03
-221.75
-257.36
-258.99
-228.26
-175.54
-116.78
-69.52
-47.38
-55.21
-87.18
-129.31
-165.71
-184.49
-183.18
-166.08
-140.22
-110.23
-75.62
-32.17
24.08
87.87
155.85
214.76
251.56
257.74
232.35
181.69
116.56
48.70
-11.96
-58.05
-86.42
-95.72
-86.29
-60.05
-20.60
27.19
78.12
127.89
174.46
216.55
253.88
285.59
309.56
322.57
321.59
305.06
273.57
230.01
177.38
118.28
54.22
-13.71
-83.37
-150.51
-208.98
-252.22
-275.34
-277.11
-259.52
-226.30
-181.15
-126.81
-65.83
-2.65
54.91
96.15
110.64
93.01
46.60
-16.08
-77.11
-119.69
-134.56
-123.05
-95.02
-63.48
-38.02
-20.90
-7.36
10.79
40.54
84.77
141.72
206.42
272.46
333.05
381.32
410.76
416.56
397.15
355.38
298.06
233.85
170.50
112.70
61.42
14.52
-31.92
-81.71
-136.55
-194.72
-250.55
-295.72
-321.98
-324.12
-301.59
-257.86
-198.71
-130.28
-58.46
10.65
70.23
113.32
134.81
133.41
112.40
78.13
37.38
-4.80
-45.47
-82.56
-113.23
-133.79
-140.86
-133.06
-112.08
-81.71
-45.61
-5.36
39.58
89.91
143.85
195.70
237.07
260.38
262.43
245.98
218.17
186.86
157.10
129.57
101.69
70.20
33.25
-9.18
-56.29
-107.47
-161.84
-217.03
-267.88
-307.05
-327.45
-325.30
-301.46
-260.67
-209.27
-152.81
-95.22
-39.39
11.99
55.95
90.10
113.29
125.78
128.12
120.20
101.23
71.60
34.96
-1.34
-28.17
-38.26
-29.37
-4.76
29.41
67.93
108.96
153.13
200.24
246.27
282.82
300.09
291.89
259.22
210.43
157.31
109.96
72.86
44.58
20.37
-4.25
-31.24
-60.32
-90.96
-123.92
-160.79
-201.88
-243.80
-278.91
-297.36
-290.91
-256.75
-198.92
-126.60
-50.78
19.13
77.02
119.48
144.35
150.25
137.30
108.60
70.83
32.63
1.06
-21.79
-40.01
-61.40
-92.75
-135.05
-181.80
-221.01
-240.14
-231.27
-194.25
-136.71
-71.33
-11.71
31.64
53.02
51.61
29.93
-7.83
-56.63
-109.87
-158.30
-190.98
-198.46
-177.66
-135.10
-85.58
-45.45
-24.05
-18.18
-13.78
5.42
47.91
108.61
170.57
213.96
225.91
206.07
165.29
119.21
81.35
59.13
53.41
60.61
75.02
89.78
97.44
90.64
63.55
14.02
-54.48
-132.62
-207.64
-267.19
-303.62
-315.99
-309.27
-291.85
-271.93
-255.15
-244.09
-238.26
-234.99
-230.24
-219.39
-198.45
-165.59
-121.79
-70.35
-15.15
40.49
93.73
140.59
174.98
190.15
182.59
156.63
125.20
105.01
108.46
136.54
177.68
213.38
227.89
215.73
182.83
141.05
100.01
62.22
23.41
-21.67
-73.17
-123.56
-160.17
-171.60
-152.97
-108.10
-47.53
15.80
70.12
106.53
119.04
104.13
61.54
-4.35
-83.84
-163.28
-228.75
-270.36
-284.92
-275.81
-250.28
-216.04
-178.64
-141.05
-104.64
-70.51
-39.98
-14.04
7.55
26.66
46.13
68.27
93.45
119.87
144.52
164.88
180.38
192.79
204.99
219.32
236.08
253.15
266.72
272.72
268.23
252.22
225.67
191.26
152.83
114.86
81.44
54.96
34.99
17.88
-2.48
-32.51
-76.16
-132.67
-195.80
-255.29
-300.47
-324.21
-325.61
-309.80
-285.20
-259.64
-237.36
-218.15
-198.78
-175.46
-145.84
-109.48
-67.55
-21.82
25.82
73.52
119.50
162.00
199.30
229.66
251.44
263.59
266.20
260.61
248.92
232.76
212.28
186.42
154.44
117.60
79.99
47.46
25.08
14.83
14.86
20.83
28.29
34.45
38.55
41.01
42.51
43.44
44.01
44.62
45.67
47.42
49.83
52.74
56.17
60.36
65.29
70.19
73.46
73.42
69.67
63.90
59.68
60.94
69.71
84.47
100.10
109.74
107.45
90.80
61.76
25.89
-9.72
-38.56
-56.02
-59.88
-50.11
-28.50
1.74
36.35
70.89
101.51
125.77
142.73
152.52
155.75
153.24
146.30
136.93
127.65
120.64
116.77
115.22
114.20
112.17
108.82
105.09
102.24
100.81
100.24
99.28
96.72
91.80
83.96
72.23
54.98
30.47
-2.13
-41.79
-85.49
-129.16
-169.01
-202.77
-230.23
-252.94
-273.56
-295.07
-320.22
-350.86
-387.15
-426.92
-465.50
-496.56
-513.72
-512.52
-491.90
-454.36
-404.63
-347.82
-287.54
-225.14
-160.12
-91.55
-20.04
51.01
115.38
165.73
196.37
206.03
198.95
183.44
168.46
159.55
156.65
154.77
147.04
128.74
99.78
64.60
29.81
1.28
-17.78
-26.98
-27.63
-21.39
-9.60
6.81
27.15
50.94
77.96
107.92
139.59
170.02
194.47
207.48
204.88
185.63
152.13
108.68
58.93
4.20
-56.05
-121.61
-188.82
-249.42
-292.53
-308.65
-293.57
-250.51
-189.03
-121.84
-61.07
-15.59
10.09
15.60
3.94
-19.18
-46.25
-69.16
-81.07
-78.27
-61.28
-34.56
-5.02
20.32
36.74
43.03
41.46
36.47
33.06
35.13
44.84
62.52
86.94
115.62
145.02
171.08
190.13
200.16
201.95
199.38
198.45
205.32
223.88
254.07
291.55
328.81
357.48
370.75
365.57
343.87
312.73
283.11
266.77
272.30
301.41
347.55
397.72
437.19
454.81
446.61
416.09
371.34
320.85
270.44
222.51
177.51
135.95
99.25
69.11
45.80
27.16
8.89
-13.55
-42.58
-77.19
-113.39
-145.95
-170.94
-187.29
-197.03
-204.18
-212.85
-225.49
-241.94
-259.91
-276.20
-288.52
-296.74
-303.27
-312.26
-328.36
-355.17
-393.89
-442.39
-494.85
-542.58
-575.72
-585.77
-568.17
-523.73
-458.42
-381.36
-301.63
-225.69
-156.30
-92.97
-33.52
24.24
81.67
138.89
194.70
246.74
291.70
326.14
347.46
354.55
347.69
328.17
297.52
257.09
208.21
152.42
91.59
27.81
-37.00
-101.17
-162.45
-217.41
-261.69
-291.10
-303.27
-298.81
-280.93
-253.94
-221.73
-185.90
-146.34
-103.25
-59.52
-21.73
1.43
3.09
-18.57
-59.82
-110.83
-158.93
-192.80
-205.97
-198.38
-175.73
-146.65
-121.28
-110.62
-121.57
-154.73
-203.42
-255.45
-297.61
-320.30
-319.25
-297.42
-264.52
-230.10
-200.80
-179.59
-167.41
-165.19
-174.12
-192.88
-197.82
-169.04
-95.82
15.57
144.96
269.58
373.23
443.56
487.44
513.52
526.03
527.59
519.82
504.46
484.71
462.89
440.51
419.49
399.91
379.39
355.92
328.15
295.88
259.93
221.24
180.64
139.74
98.98
57.36
13.98
-31.89
-80.33
-130.58
-181.81
-233.33
-284.50
-335.65
-386.90
-436.35
-479.48
-510.15
-522.95
-516.16
-492.96
-460.15
-425.65
-394.88
-368.47
-342.95
-313.65
-277.67
-235.79
-191.63
-149.01
-109.55
-71.56
-31.35
14.04
64.42
116.11
163.36
201.00
226.52
240.15
243.97
240.31
230.96
217.58
202.45
188.77
180.12
178.67
183.18
188.48
187.16
173.26
145.34
107.60
67.49
31.16
-0.45
-32.60
-73.50
-129.02
-198.44
-273.75
-343.08
-396.04
-427.71
-439.24
-435.37
-420.83
-398.36
-369.10
-333.93
-295.10
-256.24
-221.20
-192.71
-171.40
-155.55
-142.11
-127.84
-110.46
-89.39
-65.98
-42.76
-22.18
-5.73
6.76
16.95
27.09
39.07
53.59
69.89
86.21
100.58
111.71
119.52
125.18
130.60
137.65
147.46
160.14
174.99
191.14
208.17
226.50
247.22
271.48
299.81
331.88
366.96
404.42
444.00
485.01
524.98
559.00
580.15
581.44
558.37
510.53
441.27
355.58
257.92
151.47
39.36
-73.33
-178.61
-267.01
-330.87
-367.60
-380.79
-378.45
-369.38
-359.70
-351.47
-343.45
-333.18
-318.94
-300.28
-277.53
-250.81
-219.70
-183.58
-142.58
-98.08
-52.59
-9.12
30.18
65.20
98.37
133.90
175.68
224.60
276.56
322.67
351.85
354.70
326.98
270.92
194.25
107.65
22.11
-52.80
-109.71
-143.89
-153.56
-140.20
-108.30
-63.87
-12.61
41.41
95.65
147.67
193.67
228.44
247.02
247.23
231.48
206.36
180.01
158.87
145.47
138.25
133.37
127.13
117.53
104.54
89.28
73.21
57.59
43.63
32.63
25.82
24.02
27.23
34.58
44.65
55.93
67.04
76.75
84.00
87.96
88.26
85.13
79.13
70.85
60.63
48.62
35.26
21.68
9.83
1.93
-0.33
3.52
12.46
24.31
36.14
44.64
46.39
38.19
18.12
-13.23
-51.90
-91.03
-122.88
-141.60
-145.40
-136.79
-120.75
-101.87
-82.33
-61.66
-38.27
-11.58
16.84
43.57
64.94
78.54
84.14
83.31
78.58
72.40
66.41
61.06
55.73
49.08
39.61
26.28
8.80
-12.28
-35.90
-60.87
-86.21
-111.17
-135.08
-157.13
-176.24
-191.09
-200.39
-203.16
-198.89
-187.64
-169.89
-146.34
-117.87
-85.68
-51.50
-17.83
12.38
36.47
52.91
61.93
65.28
65.48
64.78
64.63
65.57
67.80
71.49
76.84
83.58
90.68
96.27
98.31
95.46
87.85
77.01
65.32
55.06
47.73
43.80
42.97
44.51
47.52
51.08
54.16
55.66
54.68
50.69
43.87
35.09
25.72
17.24
10.81
7.01
5.82
6.74
9.10
12.33
15.94
19.29
21.36
20.85
16.51
7.90
-4.30
-18.39
-32.34
-44.63
-54.68
-62.61
-68.68
-72.71
-74.06
-72.17
-67.29
-60.68
-54.20
-49.26
-46.05
-43.52
-40.06
-34.57
-27.19
-19.08
-11.83
-6.82
-4.89
-6.57
-12.28
-22.23
-35.98
-52.17
-68.68
-83.48
-95.72
-105.87
-114.98
-123.16
-128.52
-127.52
-116.77
-95.38
-66.26
-35.47
-9.77
6.27
11.96
10.20
5.46
1.48
0.03
1.06
3.92
8.53
15.44
25.05
36.63
48.00
56.21
58.98
55.72
47.76
37.49
27.03
17.31
8.18
-0.86
-9.77
-17.55
-22.63
-23.56
-19.58
-10.76
2.33
19.04
38.63
60.13
81.96
102.18
119.03
131.71
140.72
147.72
154.70
163.09
173.04
183.43
192.11
196.46
193.81
182.10
160.65
131.06
97.47
65.56
40.30
23.39
11.90
-0.38
-19.77
-49.06
-85.70
-123.17
-154.53
-175.88
-187.55
-192.76
-194.73
-194.85
-192.51
-186.48
-176.08
-161.29
-141.83
-116.65
-84.85
-47.48
-8.87
24.20
45.23
51.23
44.20
29.88
14.66
2.58
-5.46
-10.62
-13.96
-15.13
-12.74
-5.56
6.30
21.22
37.07
52.35
66.65
80.13
92.43
102.22
107.65
107.42
101.71
92.41
82.34
74.29
70.16
70.81
76.19
85.66
98.22
112.60
127.43
141.48
153.79
163.72
170.65
173.77
172.27
166.05
156.42
146.03
137.76
132.97
130.29
125.78
114.63
93.63
62.95
26.18
-11.51
-45.85
-75.17
-100.50
-123.92
-146.49
-166.90
-181.97
-188.40
-184.84
-172.82
-156.30
-139.91
-127.18
-119.56
-116.71
-117.54
-121.27
-127.54
-135.96
-145.33
-153.51
-157.82
-156.11
-147.52
-132.74
-113.57
-92.29
-71.41
-53.49
-41.18
-36.55
-39.92
-48.69
-57.22
-58.39
-46.50
-20.05
17.03
56.65
89.55
108.68
111.32
98.93
75.71
46.60
15.95
-12.68
-36.28
-52.12
-58.03
-53.04
-38.14
-16.54
6.92
26.90
39.21
42.27
37.67
29.37
21.91
18.51
19.83
23.96
27.62
27.61
22.05
11.01
-3.28
-16.62
-23.57
-18.74
1.24
36.10
81.19
128.57
169.42
196.95
208.29
204.77
190.54
170.58
149.13
129.02
111.88
98.56
89.43
84.30
82.05
80.57
76.90
68.05
52.06
28.79
0.09
-30.90
-61.10
-88.45
-112.17
-132.09
-147.60
-157.35
-159.88
-154.87
-143.98
-130.59
-118.40
-109.79
-105.29
-104.16
-105.67
-109.75
-116.53
-125.26
-133.70
-138.77
-138.14
-131.70
-121.79
-111.69
-103.57
-97.14
-90.11
-79.83
-65.26
-48.01
-31.75
-20.58
-17.24
-22.01
-32.74
-45.98
-58.32
-67.75
-74.48
-80.66
-89.47
-103.51
-123.41
-147.03
-169.95
-186.91
-193.61
-188.09
-170.98
-144.75
-112.31
-75.92
-36.85
4.08
45.53
85.09
119.54
146.02
163.27
172.26
175.73
176.71
177.06
176.40
172.38
161.64
141.30
110.19
69.78
24.51
-18.66
-51.76
-67.95
-63.79
-40.63
-4.32
36.59
73.62
100.58
114.62
115.84
106.00
87.39
62.53
34.53
7.39
-14.40
-27.06
-29.11
-22.21
-10.77
-0.38
4.40
1.68
-7.14
-18.39
-27.88
-32.72
-32.20
-27.72
-22.00
-17.90
-17.68
-22.43
-31.98
-45.03
-59.53
-73.27
-84.59
-92.95
-99.09
-104.74
-111.78
-121.56
-134.43
-149.69
-165.90
-181.46
-194.95
-205.46
-212.61
-216.43
-217.34
-215.82
-212.18
-206.05
-196.17
-180.43
-156.57
-123.25
-80.94
-32.26
18.63
67.29
110.48
147.07
178.33
206.97
235.73
265.57
294.80
319.21
333.45
333.11
316.81
287.39
251.57
217.90
193.73
182.13
180.66
182.66
180.26
168.00
144.50
111.96
74.16
34.84
-2.73
-35.13
-58.48
-69.76
-69.10
-61.77
-57.92
-69.49
-105.34
-167.32
-248.80
-336.70
-415.60
-472.12
-497.95
-490.92
-454.47
-396.03
-324.98
-250.51
-180.02
-118.44
-68.19
-29.70
-1.70
18.54
34.71
50.68
69.35
91.79
116.97
142.35
164.83
181.89
192.33
196.42
195.51
191.47
186.03
180.28
174.77
169.63
164.94
160.87
157.78
156.12
156.37
159.14
164.99
174.31
186.70
200.50
212.73
219.61
217.84
205.86
184.66
157.64
129.71
105.94
90.45
85.78
92.45
108.68
130.15
150.38
162.09
159.43
140.42
108.05
69.50
33.31
6.05
-9.85
-16.21
-17.17
-16.62
-16.57
-17.09
-17.34
-16.81
-15.80
-15.22
-15.94
-18.75
-24.25
-32.94
-44.86
-58.85
-72.10
-80.41
-79.32
-65.81
-39.63
-3.50
37.92
79.52
117.33
149.14
174.40
193.53
207.03
214.86
216.24
210.01
195.41
172.82
144.00
111.64
78.45
46.12
14.79
-16.51
-48.93
-82.74
-116.96
-149.71
-179.28
-205.05
-227.92
-250.09
-274.57
-304.73
-343.65
-392.70
-450.22
-510.62
-564.98
-603.49
-618.83
-608.50
-575.22
-525.43
-467.18
-408.66
-357.57
-320.61
-302.19
-302.56
-316.48
-334.04
-343.74
-336.94
-311.08
-270.09
-221.66
-173.23
-129.10
-89.48
-51.96
-13.66
27.07
70.18
114.43
158.40
201.37
243.66
286.42
330.47
375.34
418.92
457.70
487.77
505.94
510.26
499.99
475.14
436.53
386.73
331.32
278.95
239.34
219.55
220.15
233.78
247.41
247.93
228.02
189.32
140.85
93.64
54.64
23.34
-6.88
-44.03
-92.07
-148.33
-204.71
-251.75
-282.86
-296.29
-294.56
-281.92
-262.14
-237.65
-210.34
-182.66
-158.13
-140.51
-132.26
-133.39
-141.10
-150.63
-156.81
-155.53
-144.61
-124.10
-96.02
-63.63
-30.85
-1.55
20.85
33.88
36.54
29.89
17.27
3.93
-4.26
-2.77
10.22
33.47
63.54
96.29
128.04
155.69
176.51
188.09
189.05
180.34
165.84
151.43
142.93
143.69
153.41
168.81
185.62
200.60
212.47
221.46
227.83
231.07
229.72
222.31
208.59
190.36
171.23
155.63
147.34
148.45
159.32
179.31
207.73
244.10
287.27
333.96
377.95
410.85
424.49
414.07
380.15
328.51
267.89
206.59
149.87
99.14
52.87
8.44
-36.14
-81.44
-126.73
-170.55
-211.22
-247.30
-277.76
-302.06
-320.25
-333.25
-343.07
-352.60
-364.60
-380.26
-398.11
-414.19
-423.69
-423.07
-411.68
-391.53
-365.61
-335.69
-301.15
-259.24
-206.73
-141.75
-65.32
18.15
101.18
174.45
228.99
258.72
262.57
245.20
215.38
182.58
153.81
131.97
116.63
105.99
98.47
92.68
86.44
76.01
56.96
26.46
-14.51
-60.48
-103.46
-136.08
-154.54
-159.44
-154.20
-142.29
-125.20
-102.19
-71.87
-34.38
7.61
49.58
87.25
118.53
144.17
166.45
186.95
204.62
215.66
215.10
199.45
168.66
126.45
78.89
31.97
-10.25
-46.45
-77.25
-103.51
-124.85
-139.31
-144.45
-139.16
-125.25
-107.78
-93.83
-90.22
-101.70
-129.90
-173.45
-228.57
-289.38
-348.03
-395.69
-423.91
-427.13
-404.50
-360.12
-301.29
-235.64
-169.14
-105.63
-47.78
2.22
42.85
74.34
99.11
120.90
142.96
166.36
189.93
211.56
229.98
245.10
257.12
265.10
266.37
257.76
237.67
207.42
170.95
132.87
96.35
62.22
29.65
-2.89
-36.39
-71.15
-106.93
-143.01
-178.39
-211.78
-241.89
-267.47
-287.42
-300.46
-305.10
-299.77
-283.47
-256.53
-220.89
-179.41
-134.75
-88.64
-42.00
3.78
45.69
78.76
97.21
96.44
74.75
34.20
-19.79
-79.55
-136.54
-182.83
-212.78
-224.36
-219.49
-202.96
-180.07
-154.31
-126.35
-95.13
-60.08
-22.81
12.94
43.55
67.94
88.37
108.90
132.33
157.88
181.18
196.37
199.16
188.77
167.93
141.34
113.55
87.42
63.34
39.54
13.42
-16.60
-49.18
-79.28
-99.17
-101.09
-80.44
-37.91
20.51
85.93
149.88
206.66
253.80
290.36
314.98
324.80
316.49
288.82
245.28
194.59
148.37
116.89
104.77
109.09
120.98
129.77
127.63
112.05
85.20
50.98
11.98
-31.62
-80.57
-133.87
-186.80
-231.17
-258.02
-261.21
-239.75
-197.92
-143.17
-82.64
-20.47
42.89
108.91
177.75
245.82
305.50
347.47
364.41
354.16
320.37
270.56
212.89
153.31
94.54
37.19
-18.45
-71.05
-118.17
-157.28
-187.18
-208.66
-224.19
-236.65
-247.93
-258.08
-265.39
-267.27
-261.54
-247.38
-225.46
-197.10
-163.06
-123.02
-76.56
-25.19
25.92
68.33
93.41
96.69
80.97
56.20
35.57
29.82
42.77
70.36
103.44
132.57
151.84
160.14
159.55
152.80
141.22
124.57
102.18
74.35
42.85
10.40
-20.52
-48.47
-72.91
-93.40
-108.64
-116.36
-114.09
-100.53
-76.69
-46.06
-13.70
15.22
36.96
50.09
55.47
55.44
52.88
50.13
48.15
46.27
42.30
33.27
16.40
-9.92
-45.28
-86.72
-128.79
-164.30
-185.94
-188.20
-169.02
-130.60
-79.06
-22.82
29.82
72.88
104.19
125.25
139.68
151.02
160.65
166.64
164.84
151.12
123.59
83.69
35.71
-14.63
-61.70
-101.11
-131.00
-151.85
-166.08
-176.78
-186.17
-194.52
-199.96
-199.60
-191.52
-177.46
-162.24
-151.49
-148.30
-151.27
-155.35
-154.17
-142.55
-118.35
-84.33
-46.61
-13.05
9.13
15.39
4.59
-20.85
-55.29
-83.39
-90.89
-69.47
-21.65
40.97
105.76
164.69
215.08
257.19
291.46
316.22
329.48
330.61
321.37
306.12
289.75
274.81
262.08
250.97
239.16
224.25
205.03
181.94
157.50
133.25
110.21
89.03
69.92
51.75
32.16
12.73
-6.06
-23.30
-40.76
-60.23
-82.60
-107.59
-134.79
-164.24
-196.05
-230.53
-267.00
-307.47
-352.66
-400.99
-448.67
-491.26
-525.36
-548.61
-559.96
-537.16
-468.97
-358.95
-225.48
-91.78
24.75
115.90
181.19
224.20
250.41
262.08
261.66
252.33
237.67
221.24
202.91
180.97
153.66
121.33
84.88
49.04
21.66
10.99
21.82
52.85
97.10
143.83
182.12
199.72
189.07
150.81
93.63
30.58
-26.41
-70.50
-101.29
-122.92
-141.14
-158.54
-173.39
-181.59
-180.44
-171.10
-158.21
-147.51
-142.91
-145.31
-152.21
-159.60
-163.90
-163.36
-157.53
-145.92
-127.16
-99.52
-62.90
-20.60
19.87
48.80
58.39
47.10
21.85
-4.12
-16.63
-6.33
28.47
82.49
147.51
216.12
283.43
347.14
404.86
452.27
483.59
494.46
484.46
459.15
427.28
396.46
371.28
350.99
329.73
299.28
253.60
191.24
118.00
42.43
-28.23
-88.42
-136.68
-176.96
-216.65
-262.05
-315.08
-367.56
-406.13
-417.85
-392.09
-325.61
-225.03
-103.68
24.36
147.67
263.82
372.99
454.23
484.71
456.43
384.26
295.00
223.61
167.26
117.23
67.28
16.82
-31.03
-64.64
-74.49
-59.52
-30.31
-6.97
-8.40
-47.22
-121.61
-212.10
-292.35
-345.29
-368.63
-372.50
-371.31
-372.66
-377.57
-382.96
-383.60
-374.73
-359.63
-336.33
-304.60
-266.62
-224.33
-180.89
-140.30
-105.52
-77.77
-57.27
-42.71
-33.50
-29.38
-28.54
-29.05
-27.91
-21.84
-8.26
13.61
43.35
78.42
115.14
150.34
181.71
208.33
230.56
249.74
267.65
286.64
308.38
333.48
360.79
386.49
404.10
405.36
382.69
332.60
258.26
169.34
79.26
0.48
-60.21
-103.79
-138.01
-173.64
-219.72
-279.90
-351.26
-425.45
-491.50
-539.33
-562.51
-559.69
-534.22
-492.32
-440.77
-385.08
-328.71
-273.36
-219.99
-169.35
-121.78
-76.44
-30.92
17.81
71.59
129.02
184.97
232.13
264.02
278.04
276.66
265.96
252.53
240.56
230.76
221.52
211.42
201.18
193.87
193.08
200.56
214.72
230.95
243.51
247.84
241.81
225.79
201.66
171.71
138.07
102.83
68.41
37.56
12.78
-4.59
-15.09
-21.06
-25.63
-31.19
-38.05
-43.76
-43.92
-33.74
-10.36
25.52
69.20
113.43
150.86
176.72
190.07
193.21
189.63
181.97
171.16
157.33
141.38
126.00
114.77
110.14
111.39
114.21
112.44
100.76
76.87
41.84
-0.86
-46.74
-90.83
-127.36
-149.67
-151.54
-129.80
-86.91
-31.45
24.81
71.93
106.36
132.07
157.39
189.36
228.84
269.44
300.74
313.88
306.09
281.67
249.10
216.59
188.33
163.45
138.02
108.24
72.89
33.92
-4.96
-40.32
-70.99
-98.26
-125.06
-154.29
-187.38
-223.74
-261.82
-300.43
-339.94
-381.85
-427.08
-473.89
-516.76
-547.63
-558.70
-545.73
-509.87
-457.29
-396.88
-337.21
-284.22
-240.63
-206.44
-179.89
-158.19
-137.74
-114.17
-82.92
-40.47
13.92
76.80
140.54
194.86
230.22
241.10
228.05
197.13
157.23
116.22
78.09
42.22
4.60
-39.34
-92.05
-152.03
-213.80
-269.46
-311.22
-333.95
-336.55
-322.05
-295.96
-263.89
-229.94
-196.28
-163.82
-133.30
-105.63
-81.41
-60.11
-39.78
-17.81
7.63
36.68
67.77
98.76
128.44
157.56
188.63
225.16
270.28
325.57
390.21
460.65
531.03
594.11
642.74
671.53
678.14
663.76
632.26
588.58
536.94
479.78
417.84
351.78
283.77
218.37
161.47
117.50
86.32
61.81
33.32
-9.69
-72.28
-150.51
-232.08
-301.07
-344.13
-355.29
-337.48
-300.64
-257.61
-220.23
-196.76
-191.04
-203.16
-230.90
-271.25
-321.48
-379.06
-440.35
-499.51
-548.25
-577.71
-581.83
-560.54
-520.61
-473.43
-430.60
-399.61
-382.00
-374.30
-370.79
-366.60
-358.69
-345.30
-324.60
-294.25
-252.70
-201.53
-147.06
-99.39
-68.84
-60.84
-72.39
-92.40
-105.96
-100.76
-72.29
-25.01
30.63
83.75
127.56
160.81
186.23
207.21
225.58
241.33
254.54
266.80
281.17
300.57
325.22
351.90
375.15
389.93
394.21
389.71
380.48
370.63
362.68
357.61
355.95
358.73
366.96
379.77
392.76
398.32
388.40
358.75
311.83
256.70
205.75
170.04
155.23
159.83
176.42
194.74
205.27
202.09
184.54
156.83
126.02
98.80
78.46
63.30
47.46
24.04
-11.06
-56.33
-104.34
-144.36
-166.57
-166.19
-145.71
-114.32
-84.90
-69.25
-73.63
-96.33
-128.47
-157.75
-173.59
-171.31
-153.50
-127.92
-103.31
-85.68
-76.73
-74.51
-75.88
-78.43
-81.09
-83.56
-85.26
-85.16
-82.57
-78.40
-75.70
-78.84
-91.93
-117.15
-154.28
-201.09
-254.02
-308.45
-358.52
-396.97
-416.44
-411.73
-382.23
-332.98
-273.10
-212.36
-157.49
-110.07
-67.09
-23.73
24.04
77.93
137.35
200.25
263.41
322.12
370.29
401.55
411.65
401.27
377.31
351.20
334.73
334.95
351.00
374.61
393.84
398.15
382.29
347.48
299.67
246.46
194.41
147.65
108.25
76.92
53.37
36.57
24.89
16.29
8.90
1.36
-7.29
-17.29
-28.60
-41.67
-57.33
-76.66
-100.92
-131.14
-167.12
-206.30
-241.71
-262.84
-259.98
-228.50
-172.29
-103.70
-39.60
4.96
21.43
10.78
-19.19
-60.15
-107.23
-160.55
-223.09
-295.56
-369.89
-437.74
-491.73
-521.98
-524.40
-501.70
-461.71
-413.85
-365.38
-319.33
-275.69
-232.37
-187.85
-143.67
-103.11
-69.07
-42.12
-19.87
1.77
26.19
55.41
89.45
125.73
160.93
192.48
219.51
243.16
266.00
290.71
319.70
354.05
392.35
430.92
464.34
486.51
491.85
476.58
439.88
385.08
319.42
252.26
192.79
147.65
119.51
106.95
105.42
108.45
109.10
101.49
82.61
54.25
23.37
0.02
-6.86
5.85
33.05
63.02
82.50
82.32
60.45
21.02
-28.98
-83.09
-136.25
-183.51
-218.62
-234.50
-226.42
-195.18
-148.14
-96.21
-48.95
-10.57
20.25
46.98
70.96
88.97
94.49
81.63
48.73
-0.78
-60.54
-124.57
-189.18
-252.60
-313.00
-366.85
-409.22
-435.77
-444.80
-437.82
-418.59
-391.31
-358.94
-323.18
-284.59
-243.36
-199.48
-152.40
-100.83
-42.83
23.04
96.07
172.12
243.93
302.71
341.03
355.75
349.39
329.22
304.25
281.63
264.23
250.38
235.66
215.54
187.66
152.72
114.02
76.37
44.89
23.73
15.11
18.47
29.84
42.34
47.74
38.86
12.27
-29.83
-79.84
-126.95
-160.73
-174.71
-168.46
-147.22
-119.61
-94.47
-78.14
-73.07
-78.10
-89.61
-103.16
-114.95
-122.86
-126.89
-128.92
-131.81
-138.00
-148.24
-161.00
-172.88
-179.81
-178.53
-167.54
-147.17
-118.78
-84.12
-44.58
-1.28
44.83
92.75
140.86
186.82
227.35
258.49
276.27
277.87
262.54
231.85
188.99
137.52
80.24
19.23
-43.31
-103.80
-156.80
-195.85
-215.24
-212.06
-187.22
-145.46
-94.12
-41.20
6.71
46.29
78.21
106.36
135.59
169.06
206.53
244.66
278.97
306.29
326.10
340.00
350.05
357.13
360.54
358.85
351.22
338.36
322.25
305.37
289.91
277.48
268.90
263.92
260.95
256.84
247.75
230.19
202.43
164.83
119.31
68.58
15.74
-35.57
-80.95
-115.72
-136.39
-142.43
-137.28
-127.71
-121.53
-124.80
-139.76
-164.78
-195.71
-228.30
-259.48
-287.98
-313.84
-337.74
-360.80
-384.86
-412.84
-448.13
-492.87
-545.96
-601.53
-649.73
-679.40
-682.29
-656.23
-606.00
-541.16
-472.07
-406.12
-346.06
-290.78
-237.77
-185.48
-134.33
-86.22
-43.07
-5.68
26.52
54.87
80.67
104.68
127.11
148.50
170.16
193.74
219.88
246.78
270.07
284.24
285.17
272.18
248.55
220.19
193.43
173.14
161.84
159.83
165.67
176.59
188.89
198.48
201.75
196.20
180.68
155.07
120.01
77.04
29.24
-18.18
-58.80
-86.94
-99.54
-97.18
-83.16
-61.66
-36.40
-10.36
13.33
30.60
36.99
29.40
8.24
-21.52
-51.47
-72.54
-78.37
-67.58
-44.03
-15.04
11.41
29.32
36.12
32.82
23.16
11.97
3.77
1.66
6.78
18.26
33.60
49.49
62.80
71.46
74.93
73.92
69.59
62.81
53.83
42.33
27.85
10.19
-10.42
-33.06
-55.95
-76.43
-91.19
-97.01
-92.00
-76.77
-54.74
-31.19
-11.11
2.93
11.88
19.21
28.73
42.04
57.53
71.27
79.35
80.25
75.66
69.47
65.35
64.53
65.00
62.58
53.03
33.96
5.70
-28.95
-65.78
-100.35
-128.59
-147.23
-154.01
-147.99
-129.90
-102.26
-68.94
-34.41
-2.59
23.91
43.99
57.87
66.48
71.14
73.38
74.89
77.29
81.73
88.38
96.14
102.82
105.71
102.37
91.35
72.57
47.41
18.53
-10.52
-36.11
-55.32
-66.65
-70.43
-68.50
-63.21
-56.19
-47.55
-36.08
-20.53
-1.08
19.78
37.82
48.77
50.49
44.14
33.93
25.40
22.93
27.77
37.49
46.89
50.04
42.46
22.69
-7.10
-41.89
-75.36
-101.84
-117.85
-122.47
-116.65
-102.02
-80.12
-52.32
-20.40
12.85
43.75
68.37
83.25
85.82
74.44
48.32
7.68
-45.65
-107.79
-172.79
-233.74
-284.32
-320.50
-341.39
-349.02
-347.15
-339.62
-329.05
-316.27
-300.65
-281.32
-258.36
-233.37
-208.99
-187.51
-169.25
-151.94
-131.61
-104.63
-69.87
-29.47
12.30
51.31
85.68
116.46
146.23
176.89
208.08
237.33
261.97
281.14
296.52
311.16
327.37
345.12
362.01
374.77
381.21
381.17
376.12
367.83
357.22
344.15
327.90
308.08
285.08
259.85
233.30
205.93
177.75
148.58
118.35
87.22
55.69
24.58
-4.98
-32.02
-55.85
-76.38
-93.98
-109.12
-122.03
-132.52
-140.22
-144.77
-145.79
-142.30
-132.41
-113.47
-83.21
-41.45
8.83
61.68
110.26
149.43
177.90
198.34
215.69
234.29
255.74
278.22
297.69
310.00
312.76
306.20
292.63
274.85
254.85
232.97
208.49
180.68
150.30
120.14
94.26
76.34
67.61
65.66
64.97
59.16
43.99
19.44
-10.42
-39.88
-64.71
-84.14
-100.21
-115.28
-129.29
-139.19
-141.00
-133.53
-120.72
-110.81
-112.25
-128.77
-156.80
-186.73
-207.60
-212.45
-201.53
-181.65
-162.37
-151.41
-151.25
-158.45
-165.90
-166.40
-156.00
-135.80
-110.97
-88.15
-72.11
-63.69
-59.79
-55.38
-46.32
-31.30
-12.16
7.59
24.69
37.63
46.86
53.97
60.47
66.82
71.90
73.05
66.80
50.08
21.98
-14.76
-53.56
-85.77
-103.81
-104.42
-90.09
-67.58
-44.48
-25.61
-11.51
0.28
12.14
23.89
32.40
33.67
25.80
10.82
-5.88
-17.83
-20.33
-12.13
4.43
24.69
43.37
56.03
59.63
52.57
34.63
7.03
-27.22
-63.23
-94.82
-116.11
-123.46
-116.85
-99.85
-77.97
-56.71
-40.10
-30.58
-29.84
-39.29
-59.25
-87.23
-116.66
-137.64
-140.54
-120.45
-80.27
-30.22
16.03
46.86
56.80
47.31
24.50
-4.49
-33.79
-59.36
-77.99
-86.25
-80.58
-58.93
-22.64
22.81
68.97
107.10
131.25
139.99
136.22
125.28
112.20
99.80
88.13
75.43
59.86
41.15
21.22
3.63
-7.86
-11.18
-6.88
1.81
9.95
12.22
4.50
-15.10
-45.71
-83.62
-122.60
-154.79
-172.49
-170.60
-149.17
-114.34
-77.15
-49.61
-40.00
-49.42
-71.48
-95.50
-111.57
-114.72
-106.39
-92.79
-81.27
-77.07
-82.03
-95.35
-115.27
-140.08
-167.88
-195.63
-218.49
-230.57
-226.57
-203.96
-164.02
-111.15
-50.93
12.14
75.50
137.74
196.80
248.61
287.20
306.76
304.29
281.37
243.88
199.76
156.09
117.16
84.20
56.99
35.65
21.53
16.51
21.37
34.37
51.00
65.15
71.22
65.99
49.81
26.22
0.81
-20.48
-32.74
-33.08
-21.10
0.82
27.85
53.55
71.47
77.13
69.76
52.73
32.40
15.50
6.23
4.59
6.64
6.91
1.28
-11.07
-27.78
-45.17
-60.76
-74.63
-88.90
-105.62
-124.44
-141.84
-152.27
-150.74
-135.30
-108.05
-74.14
-39.55
-8.82
16.06
35.40
50.62
63.06
73.21
80.64
84.23
82.71
75.27
62.30
45.80
28.94
14.89
5.22
-0.81
-5.72
-12.13
-21.13
-31.51
-40.76
-46.72
-48.83
-47.77
-43.88
-35.91
-21.45
0.82
28.80
56.46
75.91
81.14
71.08
49.93
24.72
1.85
-15.20
-25.72
-29.79
-26.45
-13.65
9.63
40.75
72.33
93.92
95.97
73.96
30.81
-23.47
-74.81
-109.75
-119.74
-103.78
-68.04
-22.99
20.74
56.09
80.93
96.86
106.26
109.93
106.56
94.52
74.44
50.53
29.17
15.48
10.01
8.01
2.23
-12.55
-36.15
-62.62
-83.33
-91.52
-85.93
-71.30
-56.02
-48.08
-51.73
-66.11
-86.17
-104.92
-115.62
-113.44
-96.28
-65.29
-24.93
17.62
53.94
76.59
81.42
69.07
44.99
17.84
-3.19
-11.45
-4.83
13.80
37.49
57.19
64.24
52.79
21.54
-25.71
-80.96
-134.23
-176.20
-200.08
-202.59
-183.98
-147.42
-98.36
-43.71
9.07
53.19
83.88
99.14
99.91
89.57
72.96
55.23
40.72
32.13
30.09
33.41
39.94
47.53
54.78
61.05
65.86
68.31
66.77
59.23
44.15
21.39
-7.49
-39.33
-70.13
-95.65
-111.93
-115.74
-105.49
-82.15
-49.64
-13.99
18.35
42.59
57.05
63.07
63.66
61.67
58.43
53.68
46.53
36.83
25.81
15.52
7.34
0.83
-6.30
-17.04
-32.97
-52.52
-70.73
-81.13
-78.83
-63.49
-39.99
-16.23
1.13
10.38
15.50
23.45
39.13
61.49
83.11
93.95
86.93
62.03
26.63
-7.97
-31.71
-39.93
-34.22
-20.38
-5.14
6.92
14.53
18.89
21.57
22.64
19.91
10.10
-9.20
-37.41
-70.23
-100.80
-122.17
-129.64
-121.74
-100.20
-68.76
-32.09
4.97
37.98
63.42
79.37
85.94
85.25
80.28
73.65
66.56
58.80
49.53
38.17
24.97
10.79
-3.54
-17.75
-32.06
-46.72
-61.25
-74.07
-82.87
-85.08
-79.21
-65.77
-47.39
-27.98
-11.45
-0.13
6.01
9.16
12.50
18.79
29.21
42.94
57.65
70.24
78.02
79.67
75.79
68.71
61.51
56.73
55.16
55.59
55.07
50.01
37.36
15.79
-13.69
-47.93
-82.25
-111.37
-130.76
-137.82
-132.76
-118.43
-99.23
-79.29
-61.06
-44.95
-30.21
-16.55
-5.03
2.03
2.39
-4.62
-16.96
-30.38
-39.75
-40.90
-32.13
-14.92
6.46
26.25
39.38
44.04
42.93
42.89
51.84
74.81
110.80
152.31
188.03
207.51
205.51
183.72
149.30
111.02
75.60
45.99
22.17
3.48
-9.45
-14.49
-9.50
5.46
26.56
46.33
56.03
49.09
24.35
-12.93
-52.92
-85.32
-103.43
-106.49
-99.12
-88.68
-81.69
-81.36
-87.15
-95.95
-103.94
-108.03
-106.50
-99.31
-88.15
-76.11
-66.71
-62.59
-63.82
-67.25
-67.57
-59.60
-40.87
-13.17
17.56
43.20
56.36
53.12
34.33
5.41
-25.39
-49.23
-59.29
-52.45
-29.91
3.62
41.84
78.70
109.67
132.14
144.95
147.60
139.81
121.71
94.65
62.04
29.13
1.83
-15.17
-19.99
-13.75
0.64
20.20
43.17
68.98
96.83
124.05
145.68
155.69
149.38
125.92
89.46
48.35
12.50
-10.22
-16.78
-10.00
2.89
13.34
15.07
6.17
-10.78
-30.58
-48.19
-60.58
-67.28
-69.51
-68.72
-65.76
-60.82
-54.21
-46.88
-40.54
-37.19
-38.30
-44.10
-53.13
-62.58
-69.44
-71.72
-69.04
-62.28
-52.37
-39.33
-22.42
-1.43
21.82
42.89
55.96
56.48
43.56
20.88
-4.76
-26.33
-39.27
-42.63
-38.42
-30.02
-20.66
-12.82
-8.10
-7.44
-11.10
-18.63
-28.83
-39.94
-50.17
-57.97
-62.35
-63.02
-60.23
-54.49
-45.83
-33.54
-16.65
4.84
28.84
50.88
65.74
69.80
63.13
49.90
36.46
28.36
27.92
33.77
42.31
49.78
53.68
52.66
45.79
32.11
11.16
-15.88
-45.66
-73.42
-94.78
-107.21
-110.57
-106.07
-94.90
-77.29
-52.90
-22.09
12.92
48.06
78.46
100.18
111.40
112.58
105.94
94.34
80.61
67.14
55.67
46.98
40.71
35.60
30.22
23.76
16.25
8.18
-0.37
-10.04
-21.60
-34.92
-47.99
-57.21
-58.91
-51.36
-35.95
-16.93
0.30
11.27
13.79
8.32
-2.68
-15.53
-26.15
-30.57
-25.73
-10.21
14.77
44.91
73.25
91.98
95.08
80.91
53.06
19.20
-12.04
-34.46
-46.46
-50.78
-52.14
-54.31
-58.02
-61.00
-59.74
-51.64
-36.46
-16.19
5.98
27.01
44.90
58.86
69.03
76.02
80.50
83.11
84.42
84.99
85.27
85.28
84.44
81.39
74.18
60.75
39.95
12.51
-18.56
-48.30
-71.37
-83.85
-84.77
-76.41
-63.30
-50.31
-40.68
-34.76
-30.34
-24.21
-14.18
-0.42
14.49
26.72
32.94
31.62
23.75
12.32
1.25
-6.19
-8.85
-8.35
-8.53
-14.00
-28.00
-50.67
-78.39
-104.84
-123.01
-127.68
-116.90
-91.85
-55.64
-12.02
35.05
81.00
120.41
147.55
158.08
150.90
129.14
99.43
69.81
47.28
35.97
36.32
45.43
58.12
68.25
70.46
61.68
42.44
16.55
-10.56
-34.50
-53.69
-69.21
-82.65
-93.42
-97.78
-90.32
-67.32
-29.95
15.03
57.37
87.56
100.35
96.10
79.43
56.39
32.06
9.55
-9.42
-23.72
-32.37
-34.98
-32.45
-27.26
-22.61
-20.88
-22.48
-25.58
-27.50
-26.59
-23.49
-20.76
-21.13
-25.55
-32.16
-36.96
-35.64
-25.66
-7.31
16.74
42.86
67.95
90.06
107.88
119.98
124.41
119.41
104.64
82.07
55.86
31.17
12.51
2.33
0.54
4.90
11.73
16.94
16.91
9.15
-7.11
-30.42
-57.03
-81.58
-98.73
-105.19
-101.10
-90.00
-76.97
-66.18
-59.23
-55.22
-52.28
-49.31
-46.94
-46.87
-50.61
-58.47
-69.33
-81.47
-93.11
-102.72
-108.58
-108.73
-101.28
-85.66
-63.36
-37.85
-13.71
4.72
14.13
12.84
1.18
-17.69
-37.84
-51.74
-52.88
-38.59
-10.99
24.58
62.77
100.78
138.30
174.90
207.14
227.79
228.48
204.47
158.06
98.64
39.05
-9.67
-41.72
-57.21
-59.85
-54.55
-45.74
-37.36
-32.95
-35.21
-44.94
-60.11
-76.08
-87.16
-89.03
-80.58
-64.40
-45.14
-27.39
-13.63
-3.72
3.88
10.39
15.23
16.27
11.34
0.05
-15.46
-31.44
-44.35
-52.57
-56.68
-58.36
-58.70
-57.42
-53.35
-46.02
-36.70
-28.14
-23.30
-23.68
-28.68
-35.90
-42.23
-44.93
-42.18
-33.13
-17.78
2.93
27.41
53.33
77.95
98.67
113.67
122.28
124.80
121.90
114.11
101.71
85.18
65.89
46.52
30.68
21.85
22.00
30.45
43.71
56.46
63.19
60.06
46.05
23.48
-2.79
-26.94
-44.14
-52.10
-51.55
-45.48
-37.43
-29.98
-24.00
-19.03
-14.33
-9.85
-6.59
-6.02
-9.19
-15.93
-24.83
-33.87
-41.41
-46.74
-50.05
-52.00
-53.06
-53.05
-51.25
-46.85
-39.71
-30.79
-22.17
-16.30
-15.07
-18.88
-26.33
-34.46
-39.40
-37.42
-25.93
-4.36
25.50
59.84
93.73
122.16
140.99
147.52
140.91
122.58
96.23
67.40
42.25
25.74
19.96
23.38
31.58
39.14
41.69
37.20
26.02
10.17
-7.57
-24.11
-36.32
-41.61
-38.92
-29.83
-18.77
-11.43
-11.85
-19.96
-31.07
-37.97
-34.86
-20.47
1.07
22.32
36.08
38.50
30.10
14.72
-2.83
-18.86
-31.52
-40.41
-45.59
-46.90
-43.90
-36.34
-24.82
-11.35
0.63
6.82
3.46
-10.94
-34.30
-60.87
-82.56
-91.26
-81.60
-52.90
-9.78
39.00
83.19
114.50
129.12
128.48
117.64
102.32
86.00
68.87
49.17
25.77
0.32
-22.79
-38.52
-44.08
-40.59
-32.58
-25.46
-22.58
-23.88
-26.66
-27.58
-24.63
-17.94
-9.16
-0.59
5.83
9.09
9.31
7.50
5.47
5.34
9.00
17.22
28.91
40.86
48.52
47.47
35.23
12.45
-17.41
-49.37
-78.66
-101.73
-116.37
-121.39
-116.35
-101.84
-80.09
-55.83
-35.67
-25.93
-29.80
-44.95
-63.37
-73.92
-66.62
-37.11
11.05
67.49
119.16
155.69
173.31
175.37
169.22
161.37
153.57
142.37
122.28
90.24
48.54
4.41
-33.59
-59.61
-72.69
-76.11
-74.60
-71.43
-67.48
-62.10
-54.58
-45.21
-34.97
-24.73
-14.77
-5.16
3.74
11.02
15.80
18.14
19.31
21.01
23.93
26.77
26.50
19.94
5.54
-15.74
-40.87
-66.29
-89.35
-108.77
-124.07
-134.50
-138.57
-134.67
-122.08
-102.19
-78.86
-57.58
-43.40
-39.03
-43.73
-53.55
-62.94
-66.69
-61.57
-46.94
-24.15
4.41
35.89
67.20
94.94
115.82
127.67
130.53
126.95
121.05
116.44
114.17
112.05
105.95
92.39
71.03
45.51
22.09
6.99
3.48
10.74
24.70
39.97
51.75
56.70
53.33
41.60
22.93
0.17
-22.39
-39.69
-47.15
-42.16
-25.30
-0.54
25.69
46.44
56.20
52.58
36.59
11.95
-16.59
-44.95
-70.71
-93.13
-112.30
-127.81
-137.89
-139.71
-130.76
-110.32
-80.79
-47.46
-17.26
3.62
11.56
6.31
-9.44
-31.17
-53.67
-71.53
-79.24
-71.94
-47.01
-5.97
44.64
94.60
133.57
155.17
159.14
150.58
136.39
121.39
106.22
88.27
64.85
36.27
6.92
-16.47
-28.29
-27.16
-16.90
-4.63
2.69
1.46
-7.11
-18.24
-26.60
-29.19
-26.44
-21.13
-15.89
-11.38
-5.96
2.55
14.79
28.67
40.09
44.89
40.78
28.16
9.29
-12.97
-36.03
-57.52
-74.81
-85.01
-85.72
-76.48
-59.61
-39.59
-21.41
-8.87
-3.89
-6.71
-16.66
-32.22
-50.17
-64.99
-69.66
-58.34
-29.56
12.00
56.54
92.89
113.06
115.04
102.71
82.94
62.19
44.11
29.37
16.89
5.47
-5.18
-14.15
-19.65
-19.82
-13.60
-1.51
14.05
29.23
40.06
43.89
40.32
31.05
18.92
6.70
-3.66
-11.01
-14.65
-14.02
-8.94
-0.09
10.67
20.60
26.97
28.00
23.73
15.98
7.68
1.70
-0.55
0.02
0.40
-3.15
-13.16
-29.37
-48.63
-66.35
-79.02
-85.91
-89.25
-92.39
-97.10
-101.95
-102.73
-95.03
-77.14
-51.43
-23.18
2.19
21.79
36.10
47.51
58.04
67.59
74.10
75.14
69.85
59.80
48.20
38.11
31.10
26.96
24.57
23.12
22.75
24.12
27.45
31.79
35.07
34.77
29.02
17.40
1.47
-15.53
-29.50
-36.78
-35.58
-26.78
-13.71
-0.74
8.48
12.47
12.02
9.28
6.07
2.95
-0.81
-6.24
-13.48
-21.54
-28.96
-35.35
-42.30
-53.00
-70.51
-95.57
-125.54
-154.87
-177.23
-187.89
-185.25
-170.39
-145.33
-111.49
-69.51
-20.75
30.98
79.25
116.90
138.99
144.91
138.25
124.35
107.33
88.48
67.14
42.85
17.44
-4.70
-18.40
-20.36
-11.20
4.52
19.78
27.60
23.49
6.97
-17.96
-44.11
-63.54
-70.65
-64.07
-46.88
-24.55
-1.99
18.60
37.80
56.97
75.74
91.00
98.23
94.63
81.80
66.25
56.86
60.66
79.22
107.68
136.82
157.10
162.36
151.44
127.37
95.10
59.41
24.04
-8.04
-34.01
-51.28
-58.13
-54.60
-42.83
-26.40
-9.42
4.46
12.50
13.08
6.06
-6.93
-22.52
-36.39
-44.77
-45.97
-40.96
-32.74
-24.74
-19.18
-16.49
-15.75
-15.91
-16.71
-18.91
-23.60
-31.25
-41.05
-50.87
-57.75
-58.74
-51.74
-36.26
-13.64
13.11
39.96
62.81
78.45
85.39
84.34
78.03
70.40
65.40
65.79
72.22
83.24
95.95
106.88
112.81
111.11
99.90
77.84
44.41
0.48
-51.14
-105.56
-156.70
-198.80
-227.93
-242.43
-242.38
-228.53
-201.60
-162.84
-115.34
-64.97
-19.92
11.57
24.43
18.96
0.97
-20.73
-37.98
-46.03
-44.38
-35.68
-23.87
-12.48
-3.77
1.27
2.47
0.15
-5.12
-12.47
-20.86
-29.15
-36.19
-40.93
-42.50
-40.34
-34.49
-25.69
-15.26
-4.83
4.05
10.26
13.08
12.23
7.76
0.37
-8.27
-15.48
-17.74
-11.88
3.17
24.79
46.61
60.57
60.23
43.88
15.44
-17.25
-45.98
-65.35
-73.95
-73.33
-65.68
-52.36
-33.63
-9.81
17.59
45.44
69.53
85.74
91.23
85.38
70.13
49.65
29.32
14.14
6.96
7.80
14.29
23.19
31.93
39.38
45.69
51.41
56.55
60.25
60.87
56.54
45.81
28.30
5.24
-20.27
-43.91
-61.50
-70.42
-70.61
-64.41
-55.47
-47.36
-42.49
-41.83
-45.11
-51.27
-58.63
-64.99
-67.87
-64.84
-54.07
-35.17
-9.95
17.30
40.53
53.63
52.68
37.89
14.09
-10.79
-28.70
-34.63
-28.34
-13.57
4.45
21.78
37.24
51.79
66.47
80.58
91.29
95.12
90.07
77.18
60.30
44.26
32.70
26.75
25.23
26.22
28.60
32.53
38.90
48.00
58.70
68.32
73.52
71.43
60.78
42.36
18.71
-6.47
-29.42
-47.12
-58.06
-62.42
-61.87
-58.98
-56.30
-55.35
-55.88
-56.03
-53.26
-45.83
-34.06
-20.59
-9.32
-3.57
-4.40
-10.07
-17.23
-23.18
-27.45
-31.70
-37.89
-45.88
-52.64
-53.43
-44.61
-25.97
-1.09
24.75
47.40
65.80
81.55
96.72
111.42
122.97
127.22
120.98
104.06
79.50
52.14
26.54
5.61
-9.68
-19.68
-25.20
-27.16
-26.44
-24.04
-20.87
-17.50
-14.15
-10.98
-8.57
-8.18
-11.39
-19.41
-32.10
-47.66
-62.96
-74.68
-80.67
-80.95
-77.67
-74.10
-73.17
-76.25
-82.74
-90.51
-96.86
-99.28
-95.75
-84.66
-64.83
-36.22
-1.06
35.16
64.63
79.65
76.16
56.14
27.64
1.87
-11.14
-6.32
14.84
45.64
77.03
100.93
112.38
110.33
97.10
76.99
54.54
32.84
12.69
-6.98
-27.54
-48.96
-69.04
-84.17
-91.22
-89.25
-80.10
-67.38
-54.56
-43.25
-32.92
-21.98
-9.45
3.86
15.36
21.90
21.32
13.64
1.30
-11.79
-21.75
-26.23
-25.12
-20.17
-13.64
-7.05
-0.58
6.33
13.89
20.93
25.09
24.11
17.46
7.39
-1.79
-5.80
-2.66
6.26
17.04
25.45
29.13
28.38
25.33
22.21
19.99
18.24
15.98
12.79
9.35
6.98
6.87
9.42
14.10
19.62
24.32
26.45
24.77
19.19
11.21
3.65
-0.42
0.87
7.10
15.76
23.35
27.17
26.54
22.75
18.05
14.03
10.59
5.93
-2.44
-16.25
-35.26
-57.01
-77.43
-92.37
-99.22
-98.05
-91.64
-84.18
-79.42
-79.07
-82.39
-86.99
-90.26
-90.48
-86.88
-79.02
-66.27
-47.90
-24.03
3.29
29.87
50.61
61.48
61.32
52.22
38.42
24.42
13.41
6.77
4.60
6.48
12.03
20.81
32.02
44.29
55.90
65.05
70.27
70.74
66.55
58.88
49.89
42.31
38.56
39.88
45.83
54.45
63.01
68.91
70.43
66.96
58.82
46.91
32.26
15.79
-1.92
-20.48
-39.64
-58.75
-76.47
-90.80
-99.48
-100.96
-94.88
-82.09
-64.27
-43.28
-20.96
0.58
18.82
31.12
35.69
32.86
25.59
18.99
18.47
27.37
44.95
66.18
83.52
90.14
83.14
64.96
42.33
23.09
12.72
12.17
18.20
25.92
31.81
35.45
38.96
44.71
52.89
60.58
62.98
56.01
38.77
14.30
-11.42
-31.98
-43.03
-43.63
-35.96
-23.75
-10.39
2.25
13.84
24.83
35.31
44.43
50.51
51.90
47.67
38.12
24.74
9.79
-4.23
-15.15
-21.59
-23.23
-20.88
-16.27
-11.59
-8.94
-9.94
-15.35
-24.80
-36.66
-48.14
-55.92
-57.18
-50.69
-37.67
-21.77
-8.01
-0.98
-3.11
-13.71
-29.42
-45.66
-58.56
-66.16
-68.71
-67.66
-64.43
-59.47
-52.17
-41.62
-27.67
-11.55
4.22
16.72
23.81
25.08
21.96
17.20
13.76
13.78
17.90
25.33
34.53
43.99
52.77
60.58
67.55
73.75
78.97
82.67
84.10
82.53
77.46
68.86
57.39
44.64
32.91
24.71
21.82
24.49
31.12
38.73
44.06
44.80
40.36
31.86
21.52
11.88
5.06
2.50
4.65
10.91
19.39
26.72
28.54
20.55
0.25
-31.85
-71.80
-113.19
-149.10
-173.95
-184.77
-181.32
-165.40
-139.85
-107.75
-71.85
-34.53
2.01
35.45
63.28
83.13
93.49
94.48
88.15
78.01
67.85
60.26
55.83
53.37
51.02
47.31
41.99
35.93
30.40
26.28
23.42
20.75
16.74
10.19
0.88
-10.09
-20.48
-27.61
-29.46
-25.46
-16.79
-5.86
4.66
12.81
17.79
19.86
19.86
18.83
17.84
17.90
19.84
23.82
28.80
32.31
30.93
21.45
2.45
-24.53
-55.02
-82.79
-101.99
-109.10
-104.10
-90.15
-72.23
-55.09
-41.92
-33.77
-30.01
-29.46
-31.55
-37.04
-47.52
-64.44
-87.66
-114.52
-140.11
-158.92
-167.32
-165.55
-157.86
-150.40
-147.77
-150.07
-152.44
-147.26
-127.88
-91.78
-41.20
19.00
84.58
153.80
226.64
302.03
375.14
437.06
477.46
488.79
469.63
425.21
364.83
297.97
231.07
166.09
101.53
34.66
-36.18
-110.00
-182.89
-249.13
-303.11
-341.51
-364.43
-375.01
-377.67
-375.76
-370.26
-359.72
-341.89
-315.25
-279.77
-236.39
-185.67
-126.75
-57.59
23.43
115.18
212.25
305.22
382.94
436.04
460.40
458.64
438.82
410.94
382.74
357.22
332.92
306.57
276.30
243.18
210.51
181.36
156.05
131.43
102.06
62.51
9.39
-57.41
-134.12
-213.55
-286.00
-341.37
-372.12
-376.45
-360.11
-335.44
-317.58
-318.89
-344.02
-388.11
-438.87
-481.67
-505.04
-504.23
-481.37
-442.96
-396.44
-347.66
-300.09
-255.58
-215.55
-181.83
-156.20
-139.41
-130.28
-125.61
-121.20
-113.38
-100.36
-82.55
-62.01
-41.18
-21.69
-3.64
14.23
33.76
56.48
82.86
112.19
143.24
175.01
207.28
240.36
274.09
306.87
335.06
353.63
357.58
343.67
311.69
264.37
206.20
141.67
73.87
4.32
-65.89
-134.47
-196.75
-246.06
-275.43
-280.23
-259.93
-218.34
-162.20
-99.07
-35.49
23.62
74.81
115.97
146.62
168.52
185.89
204.19
227.92
258.43
293.09
326.63
353.60
370.85
378.30
377.92
371.89
361.24
345.97
326.04
302.51
277.72
254.42
234.32
216.99
199.81
178.93
150.73
113.04
65.83
11.12
-47.44
-105.41
-158.30
-202.14
-233.99
-252.41
-257.55
-251.17
-236.27
-216.28
-193.94
-170.44
-145.18
-116.76
-84.41
-49.32
-14.72
15.22
37.33
50.93
58.06
62.34
67.08
73.89
82.27
90.35
96.26
99.20
99.64
98.86
98.05
97.70
97.64
97.39
96.70
95.94
95.94
97.48
100.71
104.99
109.19
112.31
114.17
115.60
118.15
123.22
131.04
140.11
147.16
148.03
138.89
117.59
84.42
42.05
-5.31
-53.02
-97.02
-134.28
-162.77
-181.31
-189.36
-187.11
-175.76
-157.70
-136.33
-115.69
-99.74
-91.62
-92.73
-102.31
-117.72
-135.34
-151.83
-165.17
-174.99
-182.05
-187.20
-190.30
-190.04
-184.63
-172.96
-155.45
-134.04
-111.41
-89.84
-70.43
-53.19
-37.47
-22.63
-8.32
5.73
19.88
34.57
49.83
64.35
75.01
77.49
67.90
44.71
10.13
-29.82
-66.73
-92.30
-100.88
-91.23
-66.79
-34.24
-1.15
26.32
44.69
53.13
52.59
44.93
32.78
19.96
11.63
13.20
28.33
56.55
92.38
126.81
150.51
157.24
145.72
119.30
83.97
45.89
9.59
-22.64
-50.31
-73.90
-93.99
-110.72
-123.52
-131.38
-133.26
-128.74
-118.82
-106.18
-94.89
-89.29
-92.45
-104.71
-122.99
-141.42
-153.15
-152.83
-138.55
-112.46
-79.73
-46.54
-18.35
0.96
9.08
5.30
-9.05
-30.10
-51.52
-65.87
-67.05
-52.72
-25.35
8.63
41.25
65.74
78.65
80.29
73.69
62.98
51.57
41.29
32.37
24.17
16.11
8.37
1.99
-1.62
-1.46
2.41
8.77
15.58
20.65
22.47
20.82
16.98
13.05
10.80
10.59
10.96
9.60
5.23
-0.81
-4.33
-0.16
14.84
39.57
68.52
94.36
111.47
118.40
118.04
115.47
115.05
118.59
125.38
133.61
141.91
150.00
157.99
165.21
169.67
168.63
160.11
144.06
122.61
98.90
75.68
54.47
35.73
19.96
8.46
3.34
6.44
17.74
34.58
51.94
63.99
66.23
57.06
38.25
14.10
-10.27
-30.67
-44.94
-53.00
-56.08
-55.67
-52.86
-48.32
-42.92
-38.08
-35.49
-36.15
-39.62
-44.08
-47.32
-48.17
-47.15
-45.94
-45.90
-46.71
-46.15
-41.22
-30.08
-13.62
4.34
18.45
24.09
19.47
6.33
-10.88
-26.97
-38.15
-43.05
-42.63
-38.92
-33.77
-28.20
-22.91
-19.09
-18.78
-24.20
-36.28
-53.32
-70.72
-82.58
-84.11
-74.02
-55.13
-32.99
-13.14
1.39
10.81
17.31
22.37
24.97
21.67
9.00
-13.47
-41.50
-67.21
-82.73
-84.01
-72.86
-55.83
-40.55
-31.89
-30.06
-31.48
-31.38
-26.80
-17.91
-7.48
1.17
6.09
7.71
8.37
10.91
17.21
27.09
38.45
48.14
53.32
52.59
46.33
36.42
25.23
14.76
6.08
-0.47
-4.78
-6.47
-4.93
0.16
8.25
17.34
24.28
25.73
19.49
5.69
-12.81
-31.03
-43.38
-45.55
-36.08
-16.84
7.67
31.89
50.93
61.77
63.59
57.36
45.15
29.48
12.92
-2.10
-13.65
-20.62
-23.09
-22.15
-19.44
-16.31
-13.39
-10.52
-7.42
-4.28
-1.76
-0.70
-1.50
-3.85
-6.85
-9.41
-10.71
-10.47
-8.82
-6.08
-2.56
1.59
6.24
11.10
15.47
18.32
18.42
14.93
7.82
-2.04
-12.98
-23.16
-31.24
-36.74
-40.13
-42.46
-45.01
-49.09
-55.94
-66.50
-80.94
-98.06
-114.86
-127.06
-130.34
-121.96
-102.11
-74.02
-42.89
-13.95
9.22
25.45
35.43
40.32
40.53
35.53
24.71
8.66
-10.24
-28.30
-41.91
-48.91
-49.10
-43.57
-33.65
-20.11
-3.10
17.36
40.75
65.86
90.93
113.96
132.94
146.06
152.18
151.36
145.42
137.69
131.77
129.86
131.40
133.06
130.34
119.71
100.37
74.57
46.33
19.74
-2.28
-18.43
-28.73
-34.00
-35.74
-36.14
-37.80
-42.82
-51.69
-62.75
-72.62
-77.67
-75.60
-66.26
-51.42
-33.62
-14.98
3.22
20.31
35.57
47.90
55.99
58.90
56.59
50.07
41.13
31.89
24.33
19.91
19.36
22.53
28.39
35.52
42.52
48.30
52.22
53.99
53.53
50.93
46.45
40.53
33.71
26.54
19.46
12.84
6.97
2.03
-1.98
-5.28
-8.22
-11.05
-13.78
-16.14
-17.76
-18.41
-18.05
-16.67
-14.11
-10.08
-4.51
1.91
7.58
10.48
8.99
2.80
-6.86
-17.66
-27.01
-32.73
-33.32
-27.92
-16.33
0.71
21.25
42.04
59.15
69.08
69.99
62.39
48.86
32.88
17.48
4.38
-6.20
-14.76
-21.65
-26.65
-29.22
-29.15
-27.16
-25.01
-24.78
-27.97
-34.67
-43.62
-52.98
-61.31
-68.10
-73.60
-78.02
-80.95
-81.35
-78.31
-72.03
-64.31
-58.07
-56.17
-59.89
-68.21
-77.98
-85.15
-86.35
-80.05
-66.84
-48.74
-28.08
-6.68
14.42
34.59
53.00
68.49
79.83
86.27
87.85
85.26
79.30
70.45
59.11
46.08
33.19
23.07
18.11
19.15
24.63
31.07
34.75
33.59
28.05
20.57
13.90
9.30
6.02
2.12
-4.05
-12.60
-22.02
-30.19
-35.67
-38.37
-39.25
-39.30
-38.78
-37.08
-33.59
-28.63
-23.73
-20.89
-21.33
-24.53
-28.49
-31.06
-31.26
-29.84
-28.40
-27.94
-27.95
-26.83
-23.50
-18.61
-14.54
-13.91
-17.60
-23.88
-29.29
-30.68
-27.11
-20.12
-12.35
-5.64
0.00
5.95
13.45
22.26
30.37
34.77
32.74
22.99
6.25
-14.83
-36.29
-53.88
-64.32
-66.25
-60.43
-49.08
-34.66
-18.89
-2.82
12.36
24.35
29.80
25.88
12.39
-7.09
-26.01
-37.50
-37.24
-25.09
-4.51
19.44
42.33
61.58
76.26
86.19
91.20
90.84
84.55
72.06
53.64
30.54
5.16
-19.08
-38.43
-50.07
-53.45
-50.61
-45.27
-40.95
-39.43
-40.49
-42.79
-45.20
-47.25
-48.50
-47.54
-41.89
-29.09
-8.69
16.67
41.80
61.03
70.55
69.66
60.32
45.42
27.31
7.47
-12.73
-31.09
-44.60
-50.66
-48.43
-39.44
-26.95
-14.12
-2.48
8.29
19.19
30.11
38.72
41.25
34.67
19.04
-1.50
-19.97
-29.64
-27.08
-13.63
5.43
23.50
35.62
40.12
38.58
34.11
29.35
25.04
20.01
12.17
0.03
-16.02
-33.57
-49.03
-59.15
-62.24
-58.58
-50.18
-39.94
-31.04
-26.58
-29.25
-40.82
-61.18
-87.36
-113.36
-131.31
-133.97
-117.44
-82.91
-36.58
12.21
53.88
81.25
91.14
84.68
66.39
42.67
19.90
2.74
-6.58
-8.38
-4.57
2.63
11.86
22.73
35.08
47.64
57.34
59.93
51.90
32.67
5.65
-22.59
-44.84
-56.07
-55.06
-44.11
-27.25
-8.18
10.83
28.77
44.96
58.27
67.18
70.41
67.66
59.75
48.27
35.01
21.66
9.76
0.71
-4.34
-4.69
-0.31
8.17
19.39
31.37
41.81
48.50
50.02
46.34
39.10
31.16
25.48
23.89
26.48
31.81
37.70
42.22
44.09
42.57
37.09
27.10
12.47
-5.83
-25.39
-42.67
-54.00
-56.92
-51.28
-39.33
-24.76
-11.19
-0.82
6.12
10.71
14.38
17.81
20.78
22.59
22.84
21.92
20.85
20.59
21.47
23.12
24.89
26.53
28.44
31.38
35.80
41.12
45.85
48.22
47.24
43.52
39.28
37.66
41.63
53.07
72.14
97.19
125.07
151.80
173.73
188.57
196.18
198.47
198.52
199.26
202.21
207.03
211.75
213.61
210.01
199.23
180.83
155.64
125.50
92.78
59.56
27.03
-4.75
-36.47
-68.80
-101.67
-134.08
-164.34
-190.75
-212.33
-229.20
-242.93
-256.57
-274.21
-299.85
-335.67
-379.87
-426.13
-464.89
-486.52
-485.10
-460.58
-418.42
-366.79
-313.16
-262.30
-216.50
-176.98
-145.10
-122.30
-108.96
-103.09
-100.43
-95.81
-84.97
-65.78
-38.12
-3.27
36.43
77.59
115.66
145.47
162.81
166.27
158.09
143.49
128.18
115.57
105.70
95.96
83.66
68.60
54.05
45.29
46.39
57.14
72.06
82.56
80.90
64.02
35.05
1.70
-27.54
-47.31
-57.44
-62.25
-67.73
-78.36
-94.96
-114.69
-132.87
-145.31
-149.97
-147.21
-138.82
-126.71
-112.28
-96.36
-79.84
-63.97
-50.00
-38.51
-28.55
-17.84
-3.51
16.71
43.83
77.82
118.40
165.81
220.29
280.74
343.08
399.84
441.76
460.81
453.29
421.38
372.21
315.11
258.34
207.12
163.35
126.98
97.71
75.98
62.76
58.77
63.39
74.19
87.24
97.94
102.11
97.09
82.57
60.58
34.90
9.85
-11.08
-26.12
-35.42
-40.48
-43.32
-45.80
-49.25
-54.73
-63.40
-76.63
-95.38
-119.34
-146.17
-171.81
-191.63
-201.88
-200.68
-188.04
-165.09
-133.57
-95.94
-55.65
-17.03
15.48
38.45
50.48
52.07
44.92
31.21
13.33
-5.65
-21.75
-30.73
-29.70
-18.76
-1.47
16.32
28.81
32.39
26.76
14.43
-0.77
-15.09
-25.65
-30.67
-29.35
-21.92
-9.51
5.63
19.97
29.07
28.50
15.25
-10.51
-44.54
-79.39
-106.85
-121.27
-121.86
-112.59
-99.58
-87.55
-77.59
-67.67
-55.56
-42.10
-32.22
-32.66
-47.45
-74.21
-103.91
-124.56
-126.87
-108.57
-75.21
-37.35
-5.69
12.56
15.12
3.92
-16.71
-41.73
-66.42
-87.27
-102.52
-112.24
-117.99
-121.74
-124.49
-125.55
-122.79
-113.83
-97.23
-73.29
-44.14
-13.51
14.00
33.92
43.37
42.79
36.79
33.40
41.30
66.13
107.81
160.40
214.27
259.65
289.47
300.55
293.09
269.69
234.78
194.50
156.35
127.76
113.61
114.21
124.77
137.31
143.99
140.10
125.20
101.92
73.64
43.01
11.90
-17.54
-41.91
-56.90
-59.05
-47.87
-26.88
-2.75
16.82
25.71
21.18
4.37
-20.82
-49.59
-78.26
-105.43
-131.53
-157.18
-181.42
-200.63
-209.72
-204.82
-186.02
-158.02
-128.08
-102.40
-83.39
-69.42
-56.96
-43.43
-28.67
-14.33
-1.91
8.34
17.22
25.21
31.37
33.56
29.70
19.43
4.70
-10.93
-23.66
-30.63
-30.46
-23.16
-10.01
6.48
22.84
35.48
41.52
40.04
32.39
21.76
12.06
6.59
6.94
12.82
22.56
34.06
45.73
56.71
66.41
74.03
78.38
78.25
73.30
64.42
53.32
41.46
29.03
14.89
-2.52
-23.68
-47.29
-70.53
-90.17
-103.64
-109.44
-107.06
-96.81
-80.19
-60.46
-42.88
-34.01
-39.89
-63.48
-102.81
-150.66
-196.20
-228.22
-238.42
-223.18
-183.88
-125.96
-57.65
11.38
71.29
113.95
135.21
136.63
125.10
110.15
99.57
95.75
95.28
92.02
82.00
66.42
51.00
41.73
40.52
43.71
44.63
38.40
25.24
10.49
1.17
1.89
12.37
28.15
43.56
54.63
60.30
61.56
59.64
54.58
45.25
30.48
10.46
-12.69
-35.54
-54.40
-66.56
-70.90
-67.86
-59.14
-47.34
-35.65
-27.14
-23.73
-25.06
-28.35
-29.49
-25.30
-15.24
-1.59
12.06
23.19
31.80
39.98
49.79
60.86
69.65
70.81
60.18
37.49
7.28
-22.52
-43.81
-51.69
-46.49
-33.13
-18.66
-8.43
-3.58
-0.84
4.83
16.52
32.74
47.61
53.97
47.62
29.96
7.41
-11.84
-21.90
-21.76
-14.83
-6.54
-1.50
-1.96
-7.66
-16.79
-26.91
-35.77
-41.89
-44.83
-45.25
-44.51
-43.67
-42.37
-38.70
-30.14
-15.29
4.51
25.38
42.47
52.22
53.75
48.60
39.28
27.99
16.22
5.59
-1.51
-2.43
4.22
16.92
30.74
38.77
35.11
17.63
-10.57
-42.16
-68.56
-83.61
-86.14
-80.13
-72.40
-68.62
-70.23
-73.68
-72.72
-62.72
-44.41
-24.54
-13.03
-17.61
-39.33
-71.43
-102.42
-121.32
-122.28
-105.90
-77.30
-42.57
-6.15
29.67
63.40
92.92
115.20
127.54
129.30
122.68
111.89
101.18
93.04
87.63
83.52
79.25
74.32
69.32
65.19
62.45
60.93
59.98
58.87
56.77
52.72
45.71
35.43
23.09
11.88
6.13
9.56
23.15
44.05
66.10
82.02
86.28
77.06
56.75
30.67
5.05
-14.97
-26.48
-29.14
-24.74
-16.32
-6.93
1.25
7.34
11.51
14.12
14.88
12.59
5.81
-6.00
-21.39
-36.99
-48.70
-53.47
-50.69
-42.22
-31.30
-21.02
-13.05
-7.39
-3.02
1.05
4.98
7.79
7.91
3.98
-4.16
-15.10
-26.00
-33.57
-35.53
-31.74
-24.27
-16.22
-10.04
-6.43
-4.68
-3.89
-3.89
-5.30
-8.26
-11.44
-12.16
-7.90
1.86
14.67
25.90
30.83
26.67
13.53
-6.06
-28.31
-48.96
-63.70
-68.40
-60.13
-38.56
-7.19
27.45
57.89
78.81
89.12
91.66
91.07
90.87
91.57
90.77
85.06
72.17
52.30
28.07
3.13
-19.22
-36.93
-49.40
-57.29
-62.25
-66.42
-71.78
-79.43
-89.14
-99.44
-108.33
-114.05
-115.47
-111.99
-103.04
-88.07
-67.08
-41.60
-14.99
8.43
25.06
33.71
35.98
35.18
34.28
34.50
35.02
34.19
30.88
25.42
19.63
15.94
16.07
20.11
26.33
31.97
34.67
33.79
31.14
30.25
34.55
45.25
60.07
73.96
81.44
79.35
68.58
53.47
39.44
30.20
26.14
24.82
22.90
18.30
11.01
2.57
-5.42
-12.51
-19.50
-27.52
-36.62
-45.41
-51.68
-53.75
-51.58
-47.06
-43.15
-42.70
-47.28
-56.71
-69.07
-81.24
-89.51
-90.73
-83.53
-69.24
-51.87
-36.71
-28.03
-27.19
-32.19
-38.97
-43.65
-44.23
-40.58
-33.35
-22.79
-8.71
8.44
26.54
41.72
49.86
48.76
39.38
25.22
10.37
-2.44
-12.34
-19.22
-22.26
-19.45
-8.57
10.96
36.78
63.81
86.06
98.79
100.08
90.83
73.94
52.91
31.01
10.75
-5.89
-17.34
-22.67
-21.81
-15.87
-7.14
1.55
7.67
10.13
9.53
7.73
6.57
6.79
7.75
8.24
7.85
7.82
10.67
18.58
31.50
46.29
57.75
60.99
54.10
39.40
22.49
9.66
4.99
8.78
18.02
28.48
36.92
42.30
45.53
47.88
49.55
49.11
44.30
33.61
17.75
-0.03
-14.76
-21.60
-17.77
-3.64
17.35
40.13
59.74
72.92
78.67
77.78
71.86
62.31
50.00
35.62
20.22
5.56
-6.25
-13.51
-15.69
-13.72
-9.55
-5.43
-3.23
-4.06
-8.15
-15.10
-24.11
-34.37
-45.29
-56.59
-68.12
-79.35
-89.11
-95.77
-98.03
-95.75
-90.33
-84.04
-78.85
-75.43
-72.98
-70.14
-65.99
-60.83
-55.79
-52.12
-50.36
-50.34
-51.56
-53.46
-55.46
-56.54
-55.20
-50.07
-40.73
-28.02
-13.52
1.73
18.24
38.01
63.52
95.93
133.67
172.22
205.31
226.90
233.17
223.48
200.09
167.43
130.82
95.19
64.19
39.71
21.90
9.94
2.51
-2.07
-4.65
-5.01
-3.04
0.24
2.13
-1.14
-12.33
-32.00
-58.71
-88.15
-114.03
-130.98
-136.42
-131.09
-118.34
-101.90
-85.60
-74.99
-74.81
-87.01
-110.62
-141.02
-170.31
-189.44
-189.96
-167.59
-125.78
-71.73
-12.13
48.41
108.54
169.47
225.29
268.26
304.56
335.72
354.08
355.98
341.71
315.28
282.54
248.50
216.47
186.86
156.23
122.40
87.49
55.94
31.91
16.72
7.83
1.26
-6.34
-17.49
-31.38
-44.12
-52.00
-53.22
-48.31
-39.47
-29.01
-18.91
-11.74
-9.22
-11.49
-17.62
-25.94
-34.43
-41.42
-45.70
-46.76
-45.31
-42.59
-39.96
-39.18
-41.96
-49.31
-60.95
-75.35
-90.23
-103.37
-112.80
-116.89
-114.94
-107.86
-98.74
-92.68
-95.44
-111.21
-140.51
-179.53
-221.15
-257.56
-282.61
-292.96
-287.58
-266.55
-230.49
-181.17
-122.61
-61.23
-4.50
41.67
74.92
96.48
108.90
113.29
108.24
91.35
62.55
26.48
-7.84
-30.48
-35.03
-21.40
4.69
34.97
62.64
84.95
102.93
119.05
134.42
147.14
152.97
147.64
129.60
101.66
70.62
44.78
30.55
29.59
38.08
48.53
53.13
47.10
30.23
6.43
-18.40
-38.51
-49.90
-50.74
-41.20
-22.93
1.19
27.26
50.54
66.10
70.16
61.40
41.62
15.38
-11.58
-34.15
-49.32
-56.56
-57.18
-53.23
-46.65
-38.95
-31.33
-24.88
-20.58
-19.19
-21.28
-27.25
-37.15
-50.25
-64.39
-75.71
-79.65
-72.67
-54.07
-26.89
2.85
28.44
45.00
51.09
48.54
40.56
29.43
15.46
-2.67
-26.14
-54.07
-82.49
-105.21
-115.95
-111.17
-92.02
-64.14
-35.70
-14.37
-4.93
-8.28
-21.86
-40.96
-60.10
-73.93
-78.04
-69.56
-47.77
-14.55
25.43
65.26
97.22
114.82
114.99
99.61
75.17
50.66
33.87
28.11
31.13
36.98
39.89
37.85
33.31
30.53
31.47
33.44
30.28
16.87
-6.49
-32.92
-51.95
-55.10
-40.50
-13.90
14.16
33.11
36.66
24.69
2.60
-21.43
-39.88
-48.89
-49.36
-46.04
-44.79
-49.32
-59.10
-69.86
-76.34
-75.29
-66.86
-53.48
-37.43
-19.32
1.17
23.13
42.84
54.58
53.98
41.44
23.14
8.20
3.95
12.01
27.67
42.85
50.50
47.78
36.09
18.79
-1.31
-22.84
-44.63
-64.21
-77.03
-78.04
-64.50
-38.32
-6.03
23.80
44.12
52.02
48.98
38.92
25.84
12.43
0.26
-9.22
-13.94
-11.74
-1.66
14.97
34.51
52.17
63.73
66.97
62.09
51.20
36.87
21.06
4.63
-12.34
-29.75
-46.66
-61.05
-70.57
-73.83
-71.36
-65.89
-61.16
-60.16
-63.67
-69.87
-75.29
-76.26
-70.23
-56.34
-35.33
-9.23
18.85
45.25
66.56
80.27
85.34
82.02
71.29
54.36
32.84
9.24
-12.49
-27.52
-31.90
-24.44
-7.68
12.97
31.65
44.65
51.64
54.93
57.35
60.03
61.68
59.72
52.35
40.18
26.54
16.00
12.03
15.15
22.55
29.39
30.90
24.63
11.50
-4.77
-19.65
-30.31
-37.10
-43.19
-52.49
-67.03
-85.32
-102.82
-114.32
-116.84
-111.12
-100.58
-88.77
-77.01
-64.00
-47.66
-27.66
-6.58
11.24
22.52
27.41
29.48
33.53
42.71
56.59
71.57
82.92
87.13
83.20
72.71
58.83
45.32
35.52
31.56
33.74
40.33
48.21
54.06
55.77
52.93
46.59
38.31
29.22
19.82
10.46
1.95
-4.17
-6.15
-2.99
4.73
14.69
23.57
28.24
27.00
20.15
9.93
-0.39
-7.93
-11.42
-11.75
-11.27
-12.38
-15.77
-19.71
-20.87
-16.40
-5.86
8.17
21.62
31.48
37.82
43.80
53.57
69.56
90.54
111.80
127.07
130.71
119.38
92.66
53.23
6.53
-40.06
-78.50
-102.38
-109.10
-101.16
-85.58
-71.82
-68.81
-82.56
-114.54
-161.07
-214.09
-262.67
-295.70
-304.73
-286.51
-243.84
-184.47
-118.36
-54.49
1.31
46.82
82.35
109.18
128.19
139.57
143.24
139.61
130.26
117.97
106.13
97.46
92.41
88.62
81.80
67.93
45.47
16.88
-12.20
-35.40
-48.55
-51.18
-45.77
-35.35
-21.55
-4.53
15.21
34.99
50.24
57.18
56.10
52.57
54.97
69.46
95.69
125.90
148.02
151.14
129.88
85.92
26.67
-37.61
-96.35
-140.60
-164.62
-167.22
-152.03
-126.16
-97.35
-70.70
-47.42
-26.15
-5.79
11.97
22.97
23.49
13.56
-1.72
-14.24
-17.29
-9.34
5.20
18.71
24.63
20.86
10.29
-1.60
-10.28
-15.03
-19.04
-27.23
-42.98
-65.59
-90.22
-109.94
-119.08
-115.80
-102.88
-85.98
-70.67
-59.76
-52.33
-45.16
-35.40
-22.73
-9.45
1.29
7.92
11.55
14.99
20.51
28.31
36.41
42.38
45.32
46.50
48.14
51.42
55.43
57.93
57.33
54.29
51.26
50.67
53.35
58.29
64.20
70.98
79.51
89.83
99.25
102.28
93.39
70.79
38.66
6.00
-17.57
-26.43
-21.48
-8.76
4.20
12.23
14.07
11.58
7.38
2.79
-2.86
-11.45
-24.54
-41.98
-61.34
-78.30
-88.27
-88.10
-77.73
-60.55
-42.28
-28.73
-23.36
-25.80
-32.14
-36.95
-35.89
-27.61
-14.18
0.15
11.03
15.92
15.09
11.35
8.54
9.98
17.02
28.71
42.31
54.46
62.50
65.24
63.11
57.54
50.27
42.66
35.67
30.25
27.65
29.54
37.16
50.39
66.86
81.99
90.27
87.45
72.67
49.31
24.00
4.01
-5.69
-4.24
5.35
17.97
28.61
33.93
32.58
24.69
10.98
-7.60
-29.78
-53.61
-76.37
-94.87
-106.34
-108.99
-102.90
-90.12
-74.29
-59.52
-48.92
-43.18
-40.47
-37.56
-31.96
-23.71
-15.64
-11.77
-14.67
-23.48
-33.67
-38.98
-34.69
-20.25
0.06
18.99
29.78
29.32
19.44
5.64
-5.72
-10.47
-7.98
-0.35
9.61
20.59
33.29
49.45
69.78
92.40
112.66
124.80
124.41
110.60
86.68
58.94
34.21
17.33
9.86
10.06
14.28
18.67
20.53
18.61
12.78
3.56
-8.11
-20.93
-33.42
-44.17
-52.43
-58.35
-62.68
-66.23
-69.20
-71.13
-71.49
-70.30
-68.25
-65.70
-61.62
-53.34
-37.98
-14.84
12.60
36.96
49.81
45.90
26.20
-2.11
-28.74
-44.96
-47.17
-37.55
-21.60
-4.53
11.23
26.07
41.35
57.56
73.60
87.74
98.73
106.31
110.72
111.96
109.49
102.85
92.64
80.45
67.86
55.49
42.75
28.89
14.51
2.05
-5.44
-6.38
-2.34
2.45
3.52
-1.21
-10.33
-20.32
-28.04
-32.81
-36.68
-42.94
-53.97
-69.92
-88.72
-106.92
-120.86
-127.68
-126.10
-116.81
-102.39
-86.46
-72.14
-61.02
-52.85
-46.27
-40.00
-33.45
-26.41
-18.25
-7.76
5.88
21.59
35.84
43.98
42.87
33.11
19.35
7.93
3.37
5.98
12.11
16.95
17.74
15.27
12.75
13.17
17.22
23.49
30.39
38.13
48.88
64.53
83.74
100.82
107.75
98.55
73.42
39.73
8.86
-9.27
-10.81
0.79
17.31
30.41
35.20
31.20
21.04
8.06
-5.36
-18.24
-30.50
-42.35
-53.77
-64.28
-72.88
-77.93
-77.70
-71.38
-59.93
-46.25
-34.15
-26.51
-23.65
-22.82
-19.62
-10.50
4.98
23.47
39.18
46.73
43.67
31.55
15.08
-0.15
-9.99
-13.02
-10.61
-6.01
-2.90
-4.13
-10.75
-21.38
-32.45
-39.27
-37.65
-25.57
-4.28
22.45
49.88
74.02
92.58
104.54
109.16
105.39
92.33
70.47
42.62
13.68
-10.80
-26.66
-32.50
-30.01
-23.00
-15.86
-12.17
-13.98
-21.55
-33.53
-47.46
-60.68
-71.14
-78.03
-81.66
-82.80
-81.84
-78.72
-73.10
-64.91
-54.65
-43.21
-31.38
-19.57
-7.97
3.03
12.51
19.28
22.66
23.05
22.06
21.80
23.88
28.73
35.49
42.65
48.68
52.61
54.22
53.81
51.77
48.23
42.92
35.54
26.29
16.31
7.63
2.51
2.70
8.87
20.59
36.48
54.41
71.30
83.11
85.48
75.38
52.88
22.06
-9.91
-35.43
-49.37
-50.89
-43.14
-31.17
-19.48
-10.62
-5.32
-3.50
-5.15
-10.28
-18.40
-28.35
-38.74
-48.57
-57.79
-66.91
-75.99
-84.08
-89.31
-89.77
-84.64
-74.59
-61.47
-47.48
-34.32
-22.83
-13.08
-4.83
2.12
7.77
12.16
15.60
18.91
23.36
30.22
39.92
51.36
61.81
67.93
67.22
59.07
44.69
26.11
4.98
-17.63
-39.97
-58.32
-66.72
-58.77
-31.07
13.75
66.39
113.65
143.55
150.08
135.18
106.75
74.21
44.06
18.00
-5.47
-27.77
-47.50
-60.46
-62.18
-51.51
-32.66
-14.02
-4.23
-7.78
-22.97
-43.21
-60.85
-71.10
-73.80
-72.31
-70.66
-70.69
-71.20
-69.05
-61.36
-47.43
-29.26
-10.67
4.27
12.89
14.69
11.33
5.93
2.06
2.67
9.35
21.94
38.69
56.67
72.18
81.38
81.19
70.19
49.41
22.46
-5.10
-27.24
-39.39
-40.06
-31.35
-17.96
-5.17
3.53
7.84
10.24
13.99
20.44
27.60
30.67
24.78
8.26
-15.74
-40.35
-58.60
-67.06
-67.62
-65.87
-67.60
-75.30
-87.01
-97.70
-102.17
-97.55
-84.34
-65.65
-45.66
-28.17
-15.66
-8.95
-7.23
-8.50
-10.25
-10.47
-8.41
-4.91
-1.67
0.05
0.54
1.78
6.46
16.32
30.96
47.84
63.47
74.95
81.11
82.75
81.73
79.93
78.31
76.87
75.09
72.45
68.75
63.86
57.42
48.86
37.93
25.31
12.92
3.56
-0.12
3.38
13.98
30.19
49.58
69.17
85.73
96.03
97.54
89.40
73.19
52.82
33.43
19.42
12.93
13.19
17.40
22.29
25.48
26.05
24.34
21.22
17.55
13.95
10.81
8.38
6.89
6.62
7.93
11.07
15.90
21.70
27.26
31.45
33.85
35.16
36.73
39.57
43.48
46.76
47.08
43.03
35.17
25.98
18.61
15.09
15.24
16.75
16.44
11.84
2.14
-12.02
-29.34
-48.55
-68.50
-87.52
-102.95
-111.48
-110.41
-99.24
-80.52
-59.05
-39.90
-26.24
-18.18
-13.45
-9.13
-3.73
1.99
5.59
4.68
-1.53
-11.54
-22.15
-29.70
-31.62
-27.29
-18.17
-7.31
1.68
5.75
3.38
-5.21
-18.53
-34.63
-51.78
-68.49
-83.13
-93.63
-97.83
-94.40
-83.64
-67.73
-49.92
-33.32
-19.94
-10.60
-5.42
-4.30
-7.08
-13.06
-20.61
-27.21
-30.37
-28.63
-22.28
-13.22
-4.10
2.66
5.48
3.77
-2.17
-11.33
-21.99
-31.89
-38.60
-40.16
-35.70
-25.80
-12.17
2.90
17.30
29.70
39.61
47.17
52.64
56.05
57.12
55.51
51.10
44.34
36.23
28.20
21.79
18.34
18.59
22.39
28.46
34.52
37.81
36.06
28.34
15.60
0.40
-14.04
-25.08
-31.65
-34.44
-35.13
-35.23
-35.24
-34.46
-31.62
-25.84
-17.37
-7.65
1.28
7.58
10.42
10.20
8.30
6.49
6.29
8.61
13.65
20.87
29.03
36.19
40.06
38.59
30.73
16.94
-0.62
-18.75
-34.03
-43.98
-47.76
-46.23
-41.37
-35.27
-29.14
-23.09
-16.51
-8.95
-0.78
6.72
11.91
13.54
11.28
5.71
-2.04
-10.54
-18.23
-23.56
-25.22
-22.84
-17.61
-12.32
-10.26
-13.55
-21.87
-32.40
-41.29
-45.61
-44.70
-40.10
-34.34
-29.29
-25.30
-21.43
-16.45
-9.68
-1.30
8.00
17.40
26.12
33.34
38.04
39.36
37.19
32.59
27.62
24.60
25.08
29.26
36.05
43.56
49.84
53.29
52.70
47.37
37.16
22.80
6.02
-10.69
-24.79
-34.31
-38.30
-36.91
-31.02
-21.93
-11.10
-0.18
9.07
15.02
16.59
13.80
7.82
0.87
-4.58
-6.44
-3.72
3.23
12.85
22.80
30.57
34.21
32.88
27.05
18.25
8.47
-0.56
-7.88
-13.37
-17.37
-20.30
-22.27
-23.08
-22.39
-19.93
-15.75
-10.28
-4.41
0.59
3.29
2.60
-1.60
-8.05
-14.23
-17.16
-14.49
-5.41
9.00
26.19
42.98
56.45
64.54
66.22
61.35
50.64
35.53
18.17
1.06
-13.36
-23.28
-27.97
-27.78
-23.86
-17.61
-10.31
-2.96
3.56
8.39
10.71
9.98
6.39
0.90
-4.82
-9.03
-10.43
-8.59
-3.97
2.30
8.78
14.10
17.18
17.52
15.30
11.29
6.59
2.17
-1.47
-4.38
-6.88
-9.36
-11.92
-14.39
-16.36
-17.38
-17.09
-15.30
-12.07
-7.80
-3.36
-0.06
0.74
-1.86
-7.59
-14.87
-21.21
-24.16
-22.39
-16.20
-7.42
1.46
8.33
12.08
12.67
10.66
6.58
0.61
-7.17
-16.31
-25.62
-33.28
-37.28
-36.19
-29.59
-18.19
-3.74
11.26
24.07
32.32
34.69
31.43
24.41
16.41
10.06
6.87
6.90
9.20
12.66
16.62
20.92
25.31
28.96
30.51
28.75
23.43
15.63
7.24
0.03
-5.13
-8.43
-10.56
-12.00
-12.63
-11.84
-9.22
-5.04
-0.21
4.22
7.71
10.62
13.91
18.47
24.50
31.30
37.52
41.76
43.11
41.32
36.59
29.20
19.21
6.65
-8.20
-24.44
-40.57
-54.98
-66.51
-74.85
-80.43
-83.97
-85.95
-86.25
-84.11
-78.49
-68.64
-54.73
-38.32
-22.24
-10.03
-4.59
-6.97
-15.54
-26.45
-35.08
-37.95
-34.06
-24.95
-13.51
-2.42
6.96
14.57
20.90
25.99
29.12
29.28
26.00
19.91
12.71
6.42
2.51
1.37
2.27
3.79
4.55
3.75
1.54
-1.18
-3.28
-4.11
-3.90
-3.60
-4.10
-5.48
-6.53
-5.18
0.47
10.80
24.07
36.73
44.96
46.43
41.33
32.15
22.34
14.57
9.69
6.94
4.90
2.65
0.51
-0.24
1.91
7.74
16.69
26.79
35.23
39.20
36.94
28.44
15.64
1.92
-9.01
-14.43
-13.39
-6.86
3.01
13.82
23.82
32.20
39.01
44.63
49.19
52.29
53.04
50.54
44.40
35.21
24.54
14.52
7.05
3.07
2.21
3.13
4.11
3.87
1.85
-1.74
-6.39
-11.59
-16.98
-22.08
-26.16
-28.19
-27.26
-23.19
-16.93
-10.48
-6.21
-5.85
-9.82
-17.17
-26.18
-35.19
-43.21
-49.81
-54.78
-57.52
-56.99
-52.03
-41.97
-27.15
-9.10
9.65
26.14
37.61
42.25
39.74
31.37
19.75
8.05
-0.91
-5.45
-5.31
-1.51
4.13
9.60
13.07
13.37
10.18
4.19
-3.19
-10.16
-15.28
-17.86
-18.24
-17.44
-16.64
-16.65
-17.50
-18.58
-18.86
-17.50
-14.08
-8.93
-3.10
1.80
4.14
2.89
-1.73
-7.88
-12.37
-11.64
-3.15
13.17
34.34
54.97
69.09
72.49
64.48
48.05
28.59
11.61
0.61
-3.79
-3.30
-0.59
2.25
4.67
7.38
11.54
17.61
24.59
30.16
31.49
26.67
15.86
1.56
-12.36
-22.22
-26.10
-24.48
-19.59
-14.04
-9.55
-6.45
-4.11
-1.90
0.27
1.71
1.45
-1.11
-5.85
-11.86
-17.74
-22.06
-23.80
-22.62
-18.95
-13.74
-8.07
-2.87
1.31
4.24
5.77
5.69
3.84
0.28
-4.42
-9.10
-12.19
-12.10
-7.73
1.09
13.19
26.20
37.05
42.94
42.33
35.59
24.81
12.99
2.87
-4.02
-7.61
-8.77
-8.62
-7.69
-5.66
-1.66
4.92
13.58
22.37
28.36
28.85
22.72
11.23
-2.31
-13.93
-20.63
-21.56
-18.02
-12.51
-7.41
-4.06
-2.75
-3.13
-4.80
-7.48
-10.92
-14.71
-18.30
-21.16
-23.07
-24.14
-24.64
-24.74
-24.37
-23.25
-21.12
-18.06
-14.58
-11.37
-8.94
-7.24
-5.77
-4.03
-1.94
0.07
1.33
1.58
1.37
2.09
5.33
11.87
21.14
31.14
39.15
42.71
40.47
32.64
20.82
7.52
-4.62
-13.45
-17.78
-17.63
-13.90
-7.89
-0.86
6.13
12.21
16.59
18.70
18.46
16.52
14.15
12.76
13.26
15.64
19.05
22.23
24.07
23.95
21.75
17.59
11.62
4.01
-4.95
-14.64
-24.19
-32.64
-39.17
-43.27
-44.74
-43.78
-41.06
-37.60
-34.54
-32.72
-32.19
-31.96
-30.33
-25.61
-17.12
-5.72
6.39
16.70
23.58
26.98
28.32
29.50
31.86
35.50
39.45
42.29
42.99
41.29
37.63
32.66
26.85
20.36
13.12
5.19
-3.11
-11.11
-17.85
-22.35
-23.83
-22.06
-17.54
-11.39
-5.05
0.18
3.62
5.30
5.88
6.21
6.95
8.28
9.88
11.17
11.67
11.25
10.13
8.60
6.73
4.24
0.72
-3.96
-9.43
-14.78
-19.01
-21.51
-22.37
-22.27
-22.08
-22.38
-23.23
-24.23
-24.78
-24.23
-22.00
-17.77
-11.75
-4.72
2.02
7.19
10.13
11.09
11.12
11.41
12.77
15.28
18.42
21.38
23.46
24.06
22.78
19.43
14.21
7.87
1.52
-3.76
-7.54
-10.26
-12.81
-15.71
-18.56
-19.97
-18.31
-12.92
-4.80
3.52
9.14
10.20
6.88
1.27
-3.79
-6.20
-5.62
-3.30
-1.16
-0.47
-1.23
-2.42
-2.90
-2.26
-1.04
-0.26
-0.66
-2.32
-4.69
-7.06
-8.97
-10.44
-11.72
-13.02
-14.30
-15.29
-15.54
-14.50
-11.46
-5.76
2.78
13.32
23.84
31.71
34.77
32.54
26.55
19.85
15.57
15.51
19.41
25.30
30.52
32.91
31.38
25.95
17.25
6.10
-6.65
-20.12
-33.19
-44.57
-52.85
-56.74
-55.33
-48.40
-36.77
-22.29
-7.66
4.35
11.67
13.63
11.07
5.96
0.48
-3.74
-6.17
-7.19
-7.66
-8.33
-9.39
-10.63
-11.55
-11.71
-10.94
-9.31
-7.17
-5.04
-3.51
-3.04
-3.73
-5.12
-6.28
-6.12
-3.90
0.46
6.35
12.95
19.52
25.64
31.08
35.44
38.17
38.77
37.12
33.72
29.50
25.46
22.23
19.94
18.31
16.98
15.65
13.95
11.38
7.27
1.01
-7.61
-18.15
-29.58
-40.38
-48.95
-53.81
-53.87
-48.60
-38.18
-23.65
-6.93
9.43
22.70
30.67
32.30
28.14
20.22
11.38
4.39
1.05
1.75
5.60
11.00
16.26
20.17
22.09
21.91
19.86
16.35
11.81
6.58
1.00
-4.59
-9.72
-13.72
-15.93
-15.86
-13.47
-9.27
-4.08
1.17
5.80
9.44
11.96
13.32
13.40
12.10
9.55
6.35
3.62
2.78
5.04
10.74
18.84
27.03
32.30
32.16
25.67
13.80
-1.04
-16.08
-29.19
-39.40
-46.65
-51.18
-52.94
-51.42
-45.96
-36.23
-22.72
-7.01
8.33
20.25
26.06
24.44
16.08
3.72
-8.71
-17.47
-20.39
-17.39
-10.20
-1.31
7.10
13.78
18.33
20.84
21.30
19.48
14.99
7.78
-1.48
-11.39
-19.98
-25.40
-26.57
-23.72
-18.27
-12.19
-6.99
-3.20
-0.44
1.94
4.07
5.39
5.06
2.75
-0.88
-4.41
-6.36
-6.11
-4.19
-1.93
-0.76
-1.53
-4.30
-8.64
-14.06
-20.21
-26.75
-32.99
-37.82
-39.88
-38.18
-32.48
-23.48
-12.50
-0.92
10.18
20.20
28.64
34.80
37.76
36.72
31.71
23.92
15.55
8.98
5.83
6.32
9.38
13.32
16.59
18.17
17.63
14.93
10.29
4.19
-2.62
-9.14
-14.43
-17.86
-19.32
-19.04
-17.37
-14.65
-11.11
-7.08
-3.02
0.43
2.62
3.04
1.40
-2.25
-7.50
-13.57
-19.42
-23.95
-26.41
-26.63
-25.09
-22.61
-20.10
-18.22
-17.36
-17.66
-19.04
-21.22
-23.55
-25.08
-24.84
-22.09
-16.69
-9.12
-0.23
9.03
17.77
25.30
31.15
34.92
36.33
35.13
31.26
24.95
16.91
8.43
1.12
-3.51
-4.58
-2.26
2.30
7.44
11.66
14.08
14.58
13.47
11.25
8.29
4.87
1.28
-2.11
-4.91
-6.74
-7.34
-6.58
-4.53
-1.41
2.42
6.36
9.66
11.52
11.25
8.53
3.49
-3.26
-10.76
-17.90
-23.63
-27.14
-28.07
-26.59
-23.40
-19.61
-16.50
-15.14
-15.99
-18.75
-22.35
-25.16
-25.33
-21.32
-12.49
0.47
15.29
28.71
37.67
40.80
39.14
35.83
34.37
36.55
41.29
45.15
44.46
37.59
26.13
14.06
5.41
2.08
2.92
4.75
4.44
0.79
-5.01
-10.35
-13.02
-12.46
-9.89
-7.17
-5.58
-5.24
-5.49
-5.85
-6.62
-8.69
-12.68
-18.15
-23.44
-26.53
-26.16
-22.70
-18.06
-14.80
-14.80
-18.32
-23.85
-29.02
-31.67
-30.87
-27.26
-22.64
-19.02
-17.68
-18.49
-20.11
-20.69
-18.95
-14.82
-9.41
-4.30
-0.70
1.21
2.01
2.61
3.48
4.45
5.10
5.43
6.24
8.94
14.57
22.70
31.20
36.94
37.44
32.43
24.19
16.55
12.79
13.91
18.08
21.70
21.51
16.43
8.16
0.24
-3.93
-2.89
2.23
8.44
12.62
13.02
9.97
5.24
0.64
-3.07
-6.47
-10.64
-16.10
-22.06
-26.90
-29.17
-28.61
-26.31
-23.98
-22.90
-23.26
-24.33
-25.30
-26.01
-26.97
-28.91
-32.03
-35.71
-38.68
-39.76
-38.29
-34.35
-28.45
-21.13
-12.72
-3.41
6.53
16.51
25.67
32.96
37.48
38.64
36.32
30.93
23.38
14.90
6.70
-0.23
-5.29
-8.17
-8.52
-5.82
0.54
10.77
24.13
38.64
51.47
59.81
62.02
58.23
50.26
40.90
32.88
28.08
27.05
29.17
32.91
36.39
37.95
36.57
32.13
25.35
17.42
9.49
2.37
-3.56
-8.14
-11.40
-13.73
-16.05
-19.60
-25.49
-33.88
-43.69
-52.86
-59.22
-61.57
-60.14
-56.34
-51.95
-48.13
-44.96
-41.61
-36.95
-30.24
-21.48
-11.41
-1.25
7.70
14.55
19.15
22.21
24.97
28.57
33.48
39.32
44.97
49.02
50.27
47.99
41.97
32.49
20.29
6.50
-7.33
-19.34
-27.70
-30.95
-28.43
-20.54
-8.79
4.41
16.21
24.03
26.38
23.33
16.50
8.54
2.07
-1.22
-0.99
1.85
5.74
9.20
11.18
11.26
9.41
5.88
1.12
-4.32
-9.91
-15.27
-20.23
-24.64
-28.08
-29.78
-28.84
-24.81
-18.24
-10.64
-3.81
1.22
4.76
8.22
12.96
19.17
25.40
29.33
29.27
25.31
19.53
14.93
13.79
16.54
21.62
26.48
28.90
27.86
23.65
17.35
10.19
3.25
-2.52
-6.24
-7.10
-4.61
1.17
9.47
18.91
27.78
34.39
37.40
35.96
29.97
20.17
8.19
-3.78
-13.60
-19.84
-22.24
-21.67
-19.54
-17.11
-15.03
-13.37
-12.02
-11.10
-11.15
-12.71
-15.81
-19.69
-23.00
-24.68
-24.57
-23.54
-22.95
-23.67
-25.39
-26.71
-26.00
-22.48
-16.77
-10.64
-5.94
-3.66
-3.41
-3.85
-3.63
-2.14
0.22
2.47
3.66
3.27
1.23
-2.22
-6.75
-11.85
-16.69
-20.08
-20.73
-17.87
-11.74
-3.81
3.63
8.41
9.27
6.53
1.99
-1.78
-2.38
1.45
9.32
19.40
28.99
35.56
37.51
34.71
28.32
20.35
12.89
7.46
4.62
4.01
4.58
5.13
4.72
2.98
0.07
-3.46
-6.93
-9.74
-11.50
-12.13
-11.93
-11.47
-11.36
-11.89
-12.95
-14.05
-14.62
-14.31
-13.18
-11.57
-9.69
-7.27
-3.60
2.02
9.53
17.74
24.64
28.28
27.87
24.09
18.69
13.45
9.33
6.22
3.50
0.88
-1.25
-2.02
-0.84
2.02
5.42
7.99
8.88
8.11
6.34
4.50
3.26
3.12
4.48
7.66
12.54
18.19
22.81
24.25
21.03
13.22
2.66
-7.71
-15.09
-18.03
-16.86
-13.31
-9.45
-6.72
-5.39
-4.84
-4.17
-2.84
-0.89
1.14
2.55
2.87
2.03
0.38
-1.43
-2.65
-2.71
-1.41
1.05
4.16
7.42
10.45
13.06
14.96
15.60
14.18
9.96
2.84
-6.45
-16.44
-25.46
-32.26
-36.21
-37.18
-35.22
-30.47
-23.34
-14.84
-6.68
-0.81
1.43
-0.05
-3.95
-8.34
-11.69
-13.52
-14.29
-14.42
-13.37
-9.50
-0.96
12.68
29.24
44.15
52.09
49.49
36.37
16.54
-4.05
-19.90
-28.09
-28.98
-25.27
-20.16
-15.77
-12.57
-9.77
-6.37
-2.01
2.75
6.75
8.82
8.24
5.00
-0.30
-6.62
-12.82
-17.83
-20.84
-21.39
-19.57
-16.11
-12.29
-9.59
-9.09
-10.97
-14.28
-17.46
-19.15
-19.03
-18.17
-18.90
-24.09
-36.25
-56.65
-84.56
-117.02
-149.12
-175.12
-190.01
-190.97
-178.32
-155.32
-127.19
-99.44
-76.43
-60.55
-52.27
-50.67
-54.37
-62.04
-72.35
-83.66
-93.58
-98.97
-96.60
-84.16
-61.31
-29.58
8.41
50.20
94.11
138.71
181.42
217.59
241.02
246.26
231.26
199.09
157.31
115.31
80.92
58.04
46.44
43.04
44.17
46.83
48.91
48.33
42.20
26.81
-1.33
-43.66
-97.83
-157.01
-211.06
-249.23
-263.20
-249.40
-209.46
-149.02
-75.84
1.69
75.10
136.12
177.60
195.45
190.47
169.04
141.43
118.13
106.01
106.41
115.59
127.55
137.10
141.71
141.85
140.00
139.26
142.38
151.13
165.99
186.01
208.99
231.82
251.35
265.16
272.10
272.62
268.72
263.45
260.00
260.83
266.61
276.13
286.77
295.38
299.23
296.26
285.27
266.60
243.30
221.64
210.17
216.51
243.22
285.06
329.72
362.26
371.28
353.64
315.05
266.72
219.96
181.99
154.70
136.31
124.15
116.47
112.42
110.82
109.23
103.97
91.10
67.84
33.41
-11.10
-63.35
-120.87
-181.62
-244.08
-306.89
-368.58
-427.13
-480.24
-525.80
-562.47
-590.29
-611.20
-628.98
-648.50
-673.86
-706.27
-742.59
-775.70
-796.95
-799.66
-781.96
-747.51
-703.75
-658.48
-616.86
-580.27
-547.20
-515.38
-483.47
-451.61
-420.69
-391.32
-363.24
-335.64
-307.86
-279.94
-252.58
-226.94
-203.75
-182.97
-163.76
-144.80
-124.85
-103.18
-79.73
-54.94
-29.42
-3.59
22.44
48.84
75.85
103.59
131.96
160.67
189.42
218.00
246.55
275.77
306.86
341.03
378.55
417.83
455.07
485.02
502.65
505.15
493.08
470.14
441.60
412.31
385.29
361.47
340.45
321.50
304.10
287.88
272.24
256.35
239.49
221.73
204.16
188.53
176.39
168.20
162.92
158.37
152.03
141.99
127.49
109.05
88.09
66.52
46.19
28.54
14.40
3.84
-3.77
-9.48
-14.34
-19.03
-23.54
-27.39
-29.94
-30.99
-30.94
-30.56
-30.63
-31.36
-32.30
-32.71
-32.10
-30.66
-29.28
-29.15
-31.15
-35.51
-41.86
-49.59
-58.24
-67.63
-77.74
-88.34
-98.84
-108.29
-115.67
-120.28
-122.00
-121.33
-119.13
-116.31
-113.40
-110.40
-106.76
-101.65
-94.28
-84.25
-71.69
-57.07
-41.08
-24.50
-8.17
6.87
19.27
27.73
31.45
30.71
27.00
22.64
19.83
19.67
21.68
24.07
24.69
21.96
15.40
5.50
-6.74
-20.32
-34.33
-47.77
-59.29
-67.12
-69.46
-65.11
-54.02
-37.58
-18.20
1.32
18.58
32.08
41.46
47.28
50.75
53.31
56.16
60.02
64.87
70.01
74.49
77.50
78.80
78.74
77.87
76.36
73.60
68.27
58.97
44.96
26.70
5.94
-14.74
-32.60
-45.45
-52.12
-52.71
-48.41
-41.11
-32.66
-24.33
-16.38
-8.28
0.70
10.89
21.96
33.01
43.09
51.47
57.71
61.36
61.67
57.75
49.00
35.79
19.72
3.27
-11.13
-22.04
-29.36
-34.07
-37.31
-39.74
-41.38
-41.93
-41.47
-40.70
-40.70
-42.28
-45.44
-49.26
-52.46
-53.91
-53.20
-50.50
-46.36
-41.13
-34.80
-27.13
-17.98
-7.46
3.98
15.61
26.52
35.60
41.73
44.22
43.34
40.63
38.72
40.46
47.85
61.00
77.62
93.98
106.37
112.60
112.70
108.67
103.48
100.03
100.29
104.16
110.48
117.77
124.71
130.33
133.90
135.06
134.09
132.23
129.65
126.35
122.28
117.20
110.44
100.60
85.71
63.96
34.53
-4.78
-55.30
-116.30
-184.68
-255.70
-324.64
-388.20
-445.04
-495.33
-543.79
-596.04
-655.70
-722.54
-792.67
-860.48
-920.94
-971.00
-983.47
-938.58
-828.96
-664.08
-467.78
-267.67
-85.04
69.09
192.03
280.43
337.10
362.37
356.23
321.93
268.19
208.15
156.10
123.48
118.15
137.54
171.22
206.64
234.22
250.39
257.08
259.16
261.51
267.55
277.39
289.05
300.43
309.61
314.43
312.43
302.13
284.98
266.45
254.04
254.26
269.77
297.60
329.68
355.92
368.09
362.98
343.32
315.93
288.60
267.71
256.59
254.99
259.46
264.52
264.22
253.82
231.29
197.96
158.30
118.36
83.54
56.53
36.44
19.53
0.94
-23.35
-55.23
-94.27
-138.27
-184.13
-228.60
-268.55
-301.20
-324.43
-337.23
-340.04
-334.64
-323.57
-309.22
-293.32
-276.87
-260.66
-245.78
-233.31
-223.89
-217.05
-211.38
-205.32
-198.11
-189.89
-181.29
-172.51
-162.93
-151.66
-138.53
-124.50
-111.19
-99.32
-88.45
-77.69
-67.44
-60.35
-60.03
-68.05
-81.27
-91.99
-91.44
-74.82
-44.36
-8.24
24.05
46.77
60.32
69.62
79.96
93.65
109.25
123.62
134.76
143.01
150.05
157.01
162.86
164.66
159.32
145.46
124.39
99.50
74.75
53.22
36.27
23.64
14.19
6.61
0.03
-5.84
-10.77
-14.12
-15.10
-13.01
-7.54
1.05
11.73
22.78
32.25
38.67
41.67
42.29
42.64
45.07
51.20
61.48
75.08
90.51
106.20
120.88
133.74
144.40
152.86
159.37
164.48
168.75
172.46
175.44
177.09
176.76
174.19
169.60
163.57
156.65
148.98
140.29
130.08
117.75
102.59
83.66
59.96
30.98
-2.48
-37.97
-71.77
-100.10
-120.61
-133.17
-139.76
-143.51
-147.42
-153.47
-162.35
-173.57
-185.73
-196.80
-204.41
-206.34
-201.15
-188.77
-170.48
-148.49
-125.02
-101.53
-78.68
-56.82
-36.65
-19.57
-7.28
-0.72
0.61
-1.25
-3.48
-3.82
-1.41
3.05
8.10
12.61
16.52
20.71
26.24
33.52
41.85
49.81
56.02
59.97
62.37
64.80
68.95
75.70
84.69
94.39
102.76
108.06
109.34
106.61
100.51
92.05
82.40
72.87
64.83
59.55
57.90
60.04
65.33
72.61
80.59
88.24
94.74
99.36
101.24
99.41
93.10
82.26
67.96
52.38
38.36
28.42
23.67
23.23
24.27
22.80
14.74
-2.89
-31.12
-68.40
-110.76
-152.51
-187.67
-211.72
-222.86
-222.52
-214.70
-204.63
-197.04
-194.85
-198.49
-206.20
-214.92
-221.27
-222.69
-217.96
-207.44
-192.68
-175.64
-157.86
-139.92
-121.60
-102.30
-81.61
-59.60
-36.69
-13.40
9.94
33.09
55.78
77.43
97.16
113.99
127.18
136.55
142.37
145.10
144.83
141.07
132.83
119.22
100.27
77.42
53.36
31.10
13.00
0.19
-7.30
-9.98
-8.39
-3.13
4.67
13.10
19.72
22.56
21.12
16.84
12.50
10.79
12.97
18.25
24.35
28.68
29.55
26.68
20.87
13.38
5.27
-2.78
-10.39
-17.05
-22.12
-24.91
-25.03
-22.76
-19.05
-15.24
-12.48
-11.24
-11.17
-11.54
-11.84
-12.06
-12.44
-13.00
-13.11
-11.62
-7.37
0.10
10.13
21.10
31.07
38.46
42.53
43.40
41.80
38.63
34.61
30.21
25.54
20.49
14.82
8.48
1.84
-4.52
-10.02
-14.60
-18.69
-23.00
-28.04
-33.69
-39.16
-43.26
-44.76
-42.78
-36.73
-26.37
-11.82
6.18
25.99
45.03
60.24
69.01
70.10
64.23
53.85
42.22
32.24
25.55
22.31
21.60
22.13
22.83
22.99
22.14
19.96
16.28
11.35
6.07
1.85
0.11
1.66
6.34
13.05
20.37
27.13
32.69
36.91
39.70
40.74
39.48
35.34
28.04
17.88
5.74
-7.11
-19.24
-29.34
-36.43
-39.96
-39.89
-36.72
-31.44
-25.36
-19.78
-15.64
-13.28
-12.38
-12.26
-12.21
-11.79
-10.84
-9.38
-7.34
-4.56
-1.10
2.42
4.54
3.28
-3.09
-15.14
-31.69
-49.99
-66.63
-78.80
-85.18
-86.24
-83.62
-79.11
-73.85
-68.13
-61.72
-54.48
-46.62
-38.59
-30.55
-22.17
-12.82
-2.21
9.08
19.59
27.67
32.55
34.85
36.36
38.93
43.41
49.21
54.73
58.44
59.69
58.99
57.36
55.54
53.48
50.50
45.91
39.82
33.37
28.39
26.60
28.96
35.19
44.01
53.76
62.97
70.69
76.49
79.91
80.26
76.47
67.39
52.34
31.73
7.52
-16.82
-37.10
-49.63
-52.76
-47.71
-38.28
-29.27
-24.53
-25.61
-31.97
-42.47
-56.90
-76.42
-102.56
-135.48
-172.83
-210.33
-243.26
-268.09
-282.89
-286.75
-278.97
-259.46
-230.07
-195.36
-161.96
-135.82
-119.04
-108.67
-98.26
-81.35
-54.91
-20.65
16.10
49.10
73.60
87.56
91.22
86.12
74.06
56.53
34.49
8.36
-21.61
-54.55
-88.26
-118.85
-141.39
-151.52
-146.87
-127.67
-95.98
-54.60
-6.03
47.36
102.52
155.37
200.94
234.70
254.50
261.66
260.81
258.47
260.80
271.55
290.87
315.24
338.72
354.98
359.31
350.05
328.97
300.46
270.14
243.06
222.40
208.84
200.57
194.23
186.35
175.04
160.92
147.13
137.95
136.74
144.26
158.26
174.46
188.43
196.98
198.48
192.35
178.43
156.79
128.17
94.46
58.63
24.10
-6.31
-31.02
-49.94
-64.28
-76.10
-87.91
-102.11
-120.38
-143.18
-169.90
-199.44
-230.95
-264.05
-298.31
-332.21
-362.48
-384.32
-392.53
-383.10
-354.31
-307.09
-244.80
-172.59
-96.85
-24.50
37.95
85.70
116.89
133.00
138.18
137.50
135.02
132.44
129.15
123.25
113.16
98.69
81.21
63.08
46.68
33.80
25.53
22.45
24.78
32.14
43.07
54.73
63.21
64.55
56.24
38.30
13.73
-12.32
-34.17
-47.57
-51.00
-45.90
-35.75
-24.20
-13.37
-3.06
8.69
23.97
43.52
66.15
89.42
111.00
129.81
146.16
160.71
173.27
182.12
184.55
178.33
163.19
141.33
116.59
92.74
71.60
51.90
29.42
-1.37
-45.13
-103.10
-171.43
-241.27
-300.83
-338.55
-346.59
-323.59
-275.49
-214.17
-154.00
-107.57
-82.02
-77.29
-86.94
-101.02
-109.64
-105.62
-85.79
-50.69
-3.93
48.64
99.59
140.93
165.71
169.93
153.88
121.97
80.95
37.53
-3.24
-37.76
-62.98
-75.71
-73.05
-53.95
-21.10
18.63
55.58
80.24
86.13
71.56
39.71
-2.80
-48.15
-89.39
-121.78
-143.31
-154.45
-157.41
-155.28
-151.01
-146.64
-142.84
-139.00
-133.64
-125.19
-112.77
-96.66
-77.98
-57.94
-36.95
-14.05
12.65
44.89
82.98
125.02
167.31
205.68
236.92
259.74
274.84
284.17
290.02
294.12
297.29
299.45
299.91
297.73
292.34
283.84
273.02
260.90
248.02
234.02
217.78
198.21
174.96
148.90
121.50
93.86
65.76
35.38
0.05
-42.58
-93.76
-153.48
-220.48
-292.23
-364.50
-431.07
-484.17
-516.15
-521.62
-499.03
-450.94
-382.56
-299.78
-207.66
-110.41
-12.58
79.79
159.36
219.30
255.87
270.14
267.66
256.04
241.90
228.64
216.10
201.98
184.24
162.67
138.92
115.38
93.27
71.73
48.02
18.82
-18.23
-63.89
-117.11
-175.45
-235.18
-291.60
-339.31
-373.11
-389.70
-389.34
-376.53
-358.90
-344.43
-338.24
-340.87
-349.26
-359.64
-370.92
-385.55
-407.37
-437.55
-471.69
-500.25
-512.68
-502.66
-471.24
-426.18
-377.30
-331.33
-289.08
-246.58
-198.86
-143.73
-83.21
-22.14
34.87
86.01
132.53
176.92
220.36
260.99
294.07
314.14
317.92
306.37
284.79
260.79
241.00
228.53
222.07
217.20
208.91
193.67
170.24
138.99
100.79
56.56
8.19
-40.23
-82.24
-110.49
-119.83
-110.31
-88.11
-63.52
-46.89
-44.45
-56.12
-76.32
-97.07
-111.82
-117.63
-115.33
-107.94
-98.51
-88.67
-78.41
-67.01
-53.96
-39.61
-25.09
-12.06
-2.18
3.41
4.73
3.49
2.94
6.91
17.82
34.77
53.09
65.74
66.68
54.19
32.19
8.48
-9.18
-16.93
-16.50
-13.58
-14.06
-20.41
-30.51
-39.07
-40.76
-33.30
-18.75
-2.43
9.72
13.88
9.95
1.21
-7.37
-11.34
-8.31
1.81
17.60
37.70
61.48
88.99
120.31
154.76
190.94
227.17
262.19
295.22
325.55
351.56
370.57
379.35
375.47
358.51
330.57
295.68
258.29
221.85
187.93
156.35
125.83
94.68
61.31
24.53
-16.11
-59.85
-104.27
-145.26
-177.55
-195.92
-196.80
-179.66
-147.70
-107.60
-68.06
-37.47
-21.79
-23.35
-40.94
-71.24
-110.41
-155.20
-203.10
-251.51
-296.92
-334.57
-359.41
-367.39
-357.04
-329.95
-290.01
-241.85
-189.10
-133.00
-72.28
-4.24
72.97
157.83
244.10
321.51
378.66
407.01
404.23
375.32
331.08
284.52
246.77
224.25
217.82
223.89
236.68
250.43
260.93
266.06
265.59
260.59
252.62
243.04
232.53
220.93
207.14
189.34
165.69
135.09
97.78
55.64
11.72
-30.44
-67.61
-97.68
-120.08
-136.23
-149.28
-163.74
-184.30
-214.68
-256.67
-309.77
-371.40
-437.26
-501.62
-557.44
-597.02
-613.46
-602.62
-564.79
-504.99
-431.31
-352.07
-273.14
-196.63
-121.38
-44.87
34.44
115.57
194.86
267.50
329.53
379.75
420.43
456.38
492.88
533.75
580.39
632.00
686.31
739.99
788.42
825.49
844.13
838.16
804.79
746.27
669.66
584.61
500.16
422.33
353.58
293.53
240.61
193.18
149.99
109.98
72.29
36.28
1.85
-30.61
-60.58
-87.68
-112.04
-134.30
-155.25
-175.41
-194.75
-212.76
-228.88
-242.94
-255.51
-267.87
-281.60
-297.98
-317.52
-340.01
-364.71
-390.91
-418.46
-447.76
-479.85
-516.27
-558.96
-609.67
-668.74
-733.72
-798.40
-853.54
-889.15
-897.91
-877.75
-832.51
-770.02
-698.92
-625.68
-553.45
-482.90
-414.00
-347.53
-285.24
-228.96
-179.48
-136.18
-97.53
-62.19
-29.89
-1.45
21.54
37.81
47.26
51.23
52.19
52.95
55.78
61.76
70.75
81.81
94.06
107.27
122.15
140.05
162.26
189.29
220.46
253.98
287.37
318.19
344.66
365.73
380.97
390.23
393.58
391.52
384.90
374.73
361.67
345.73
326.38
303.12
276.32
247.62
219.73
195.49
176.82
164.05
156.06
150.94
147.03
143.56
140.71
138.90
137.99
136.98
133.97
126.72
113.53
93.92
68.93
40.64
11.49
-16.80
-43.61
-69.24
-94.10
-117.85
-139.11
-156.07
-167.56
-173.83
-176.40
-177.08
-176.90
-175.66
-172.36
-166.35
-157.87
-147.90
-137.03
-124.68
-109.29
-89.47
-65.33
-38.95
-13.60
7.85
23.98
34.74
40.56
41.51
37.15
27.40
13.40
-2.32
-16.58
-26.79
-32.06
-33.37
-33.03
-33.62
-37.09
-44.29
-54.88
-67.57
-80.55
-91.94
-100.07
-103.70
-102.07
-94.75
-81.57
-62.84
-39.80
-14.95
8.22
26.32
37.36
41.78
42.29
42.50
45.19
51.09
59.04
67.42
75.63
84.79
96.79
112.55
130.48
146.61
156.27
156.43
147.38
132.54
116.77
104.06
96.06
91.93
89.49
86.57
81.97
75.58
67.98
59.99
52.37
45.73
40.38
36.15
32.26
27.51
20.87
12.09
2.14
-7.11
-13.72
-16.49
-15.29
-10.66
-3.02
7.86
22.46
40.64
60.67
79.07
91.84
96.41
93.28
86.10
79.96
78.64
82.37
87.43
87.90
78.57
57.32
26.07
-10.33
-45.97
-76.00
-97.71
-110.67
-116.29
-116.97
-115.41
-113.76
-113.04
-112.73
-111.07
-105.99
-96.31
-82.69
-67.57
-54.22
-45.21
-41.12
-40.05
-38.26
-31.68
-17.50
4.61
32.50
62.49
90.77
114.58
132.58
144.42
149.96
148.79
140.33
124.53
102.69
77.57
52.91
32.31
18.15
10.96
9.48
11.13
13.00
12.95
9.93
4.05
-3.74
-12.31
-20.98
-29.64
-38.43
-47.09
-53.98
-56.77
-53.19
-42.09
-23.98
-1.04
23.71
47.39
67.90
84.96
98.54
108.45
114.18
115.65
113.92
111.64
112.35
118.90
132.86
152.24
171.99
185.95
189.47
181.30
163.80
141.63
112.72
77.18
36.29
-6.97
-48.29
-83.43
-109.56
-125.97
-133.98
-136.33
-135.02
-131.76
-127.57
-122.77
-117.22
-110.67
-103.18
-95.26
-87.86
-81.06
-74.85
-69.06
-63.32
-57.23
-50.48
-43.06
-35.35
-28.16
-21.71
-16.10
-11.15
-6.45
-1.48
4.23
10.70
17.44
23.35
27.52
29.27
28.45
25.59
21.41
16.77
12.24
7.69
2.12
-5.33
-15.27
-27.58
-41.30
-54.95
-67.26
-77.53
-84.63
-90.14
-95.52
-101.84
-109.78
-119.69
-131.36
-143.38
-152.65
-154.66
-145.22
-122.24
-87.60
-47.26
-9.25
19.72
36.63
42.69
41.93
38.49
34.91
31.54
27.64
22.77
17.59
13.50
11.56
11.75
12.78
13.05
11.15
6.80
0.78
-5.46
-10.50
-13.66
-15.15
-16.14
-17.79
-20.99
-25.91
-31.97
-38.19
-43.50
-47.33
-49.63
-50.80
-51.26
-51.27
-50.58
-48.60
-44.65
-38.06
-28.62
-16.69
-3.02
11.43
25.65
38.90
50.68
60.74
68.90
75.00
78.83
80.20
79.05
75.47
69.95
63.19
56.02
49.23
43.31
38.40
34.38
30.90
27.67
24.83
22.82
22.28
23.64
26.82
31.10
35.35
38.24
38.85
37.19
34.12
31.06
29.28
29.31
30.73
32.54
33.40
32.36
29.41
25.34
21.47
19.35
20.50
26.34
37.66
53.24
69.42
80.53
80.50
65.40
35.54
-4.02
-45.58
-79.25
-98.05
-100.43
-89.84
-72.10
-52.52
-34.27
-18.46
-5.10
5.95
14.16
19.14
21.03
20.71
19.39
17.90
15.37
9.48
-2.38
-21.52
-45.68
-68.73
-82.35
-79.49
-57.92
-21.63
20.66
59.17
86.61
100.37
101.67
93.73
79.36
60.04
36.42
9.07
-21.34
-54.87
-91.76
-132.34
-175.45
-216.87
-249.80
-267.42
-266.63
-250.40
-226.84
-205.62
-193.00
-188.70
-186.53
-177.72
-155.29
-116.96
-65.59
-7.62
49.01
96.84
130.36
147.23
149.21
142.40
135.76
138.29
155.42
186.27
223.28
254.62
268.59
258.30
224.66
176.63
128.46
94.78
85.37
101.85
137.28
179.37
215.41
236.42
239.15
225.19
197.95
160.05
112.80
58.07
1.10
-48.18
-77.60
-77.71
-47.11
5.34
62.73
106.59
124.14
112.93
80.97
42.42
11.36
-3.47
-0.71
14.65
34.46
50.90
58.56
55.24
41.17
18.29
-10.19
-39.12
-61.38
-68.14
-50.97
-4.86
68.82
161.13
257.21
340.51
397.92
423.46
419.02
392.25
352.87
309.56
268.21
231.93
202.02
178.79
161.74
149.43
139.23
127.54
110.96
87.36
56.58
20.27
-19.27
-60.15
-101.52
-143.62
-187.02
-231.46
-275.34
-315.99
-350.27
-375.77
-391.90
-400.12
-403.89
-407.97
-417.50
-436.84
-468.02
-509.29
-554.58
-594.71
-620.25
-625.02
-608.57
-576.06
-535.78
-495.23
-458.38
-425.09
-392.90
-359.52
-324.11
-286.73
-246.52
-200.65
-145.74
-80.79
-9.46
60.25
119.03
159.68
179.79
181.68
170.48
151.96
131.53
114.43
105.59
108.52
122.74
141.97
154.30
145.76
105.89
32.77
-65.04
-171.07
-266.57
-336.70
-374.70
-382.66
-368.87
-343.41
-313.94
-283.85
-253.30
-221.31
-188.09
-155.53
-126.18
-101.19
-79.21
-56.77
-29.84
3.90
44.13
88.32
133.58
178.56
223.82
270.45
317.59
361.09
393.77
408.03
399.12
367.19
316.77
254.25
185.03
112.49
39.04
-31.79
-93.96
-140.10
-164.33
-164.91
-145.18
-111.63
-70.66
-25.73
23.06
77.13
136.26
196.30
249.68
287.95
305.43
301.61
281.31
252.61
223.64
199.90
182.79
170.41
159.53
147.78
135.01
123.15
114.89
112.09
114.55
120.05
125.44
128.07
126.80
121.77
113.18
100.39
81.69
55.38
21.35
-17.70
-56.25
-87.45
-105.31
-106.62
-92.03
-65.69
-33.95
-3.50
20.30
34.62
39.31
36.40
28.74
18.83
7.87
-4.26
-18.31
-34.87
-53.91
-74.64
-95.60
-114.53
-128.29
-133.23
-126.18
-105.89
-74.31
-36.51
0.87
32.09
54.15
67.00
72.33
71.83
66.39
56.77
44.88
34.27
29.23
32.63
44.45
61.94
81.61
101.52
122.06
144.69
169.45
193.11
209.69
213.19
200.81
174.74
141.30
108.10
81.04
62.61
52.15
47.62
47.19
50.02
55.63
62.88
69.34
71.68
66.91
53.82
33.75
10.22
-12.44
-30.85
-43.77
-52.30
-59.14
-66.83
-76.81
-88.90
-101.87
-114.77
-128.11
-144.25
-166.64
-198.03
-238.50
-284.52
-329.36
-365.00
-384.80
-385.68
-369.01
-339.57
-303.56
-266.33
-231.05
-198.51
-168.03
-138.44
-108.72
-78.33
-47.14
-15.60
15.10
42.98
65.70
81.29
88.64
88.32
82.06
72.05
60.25
48.05
36.58
27.15
21.31
20.25
23.98
30.68
36.97
38.98
34.08
21.97
5.03
-12.37
-25.45
-30.46
-25.93
-13.08
4.37
21.37
33.36
38.17
37.33
35.71
39.70
54.37
81.13
116.71
154.48
187.57
212.07
228.74
242.02
256.90
275.38
294.98
309.06
309.81
291.84
254.95
204.63
150.17
101.39
65.56
46.07
41.47
46.19
52.22
51.56
38.71
12.53
-23.22
-60.96
-90.83
-104.90
-99.74
-77.52
-44.81
-9.83
20.57
43.06
58.65
72.90
92.03
120.06
156.41
196.06
231.93
257.93
271.35
264.52
235.22
186.34
125.72
62.53
3.91
-45.97
-84.86
-111.32
-124.91
-125.16
-116.12
-104.22
-97.07
-100.64
-117.49
-146.91
-186.46
-232.08
-278.60
-320.87
-352.76
-368.60
-364.13
-338.49
-295.67
-243.37
-189.89
-140.42
-97.55
-58.74
-23.30
5.18
19.61
13.09
-15.80
-59.89
-104.79
-134.49
-137.45
-111.11
-61.22
2.18
66.51
120.85
157.94
174.05
167.81
139.93
93.29
33.25
-32.77
-96.59
-150.36
-187.33
-203.36
-197.59
-172.23
-131.08
-78.20
-16.94
49.41
116.87
180.30
233.10
269.23
282.43
272.98
249.34
225.56
213.34
215.64
226.29
234.27
230.41
211.76
182.27
148.91
118.02
93.41
71.91
49.78
24.78
-3.09
-32.51
-62.19
-92.50
-124.15
-159.09
-199.29
-244.20
-290.88
-334.46
-369.96
-393.87
-410.04
-420.45
-428.40
-437.85
-451.38
-470.03
-491.91
-512.23
-524.09
-520.27
-494.90
-447.00
-380.75
-300.77
-215.94
-134.80
-62.99
-2.66
46.50
86.13
116.95
139.11
153.20
160.51
163.69
165.75
168.70
173.01
178.17
182.71
185.57
186.76
186.96
187.57
189.86
194.30
200.38
207.08
213.23
218.28
222.63
227.40
234.53
246.13
263.68
287.19
314.96
343.78
370.05
391.02
405.60
414.67
420.58
426.13
433.75
445.04
460.56
479.67
500.22
518.33
528.76
526.18
506.92
470.40
419.79
360.99
300.60
243.75
192.47
145.34
98.21
46.24
-14.16
-84.07
-161.64
-242.59
-320.76
-389.53
-443.48
-480.39
-502.62
-517.32
-534.66
-564.25
-611.02
-672.07
-736.62
-789.09
-814.28
-802.36
-751.57
-667.63
-560.79
-442.01
-320.19
-201.18
-88.05
17.69
114.76
201.65
276.71
338.78
387.57
423.59
447.56
459.96
460.89
450.42
429.69
401.87
372.21
346.93
330.92
325.56
327.68
330.53
326.37
309.60
278.84
236.72
188.24
138.04
88.51
39.43
-11.13
-65.36
-124.82
-189.79
-258.91
-328.99
-394.97
-450.71
-490.48
-510.82
-511.74
-496.40
-469.38
-434.38
-392.78
-343.89
-287.07
-223.95
-159.67
-101.70
-56.88
-28.16
-13.13
-5.17
3.16
16.70
36.00
58.13
79.45
98.08
114.61
130.67
146.46
159.56
165.62
160.73
143.73
116.59
83.20
47.49
12.35
-20.00
-46.71
-63.49
-65.41
-49.52
-17.31
24.27
64.43
92.35
101.33
90.73
65.16
31.51
-3.88
-36.28
-61.94
-76.79
-76.21
-56.45
-16.80
39.10
104.23
171.14
234.55
292.23
343.43
386.50
417.94
433.48
430.62
410.86
379.81
345.07
313.21
287.55
267.95
251.98
237.07
221.73
205.91
190.41
176.04
163.22
151.90
141.60
131.60
121.14
109.61
96.75
82.83
68.52
54.72
41.90
29.57
16.16
-0.55
-22.63
-50.94
-84.38
-120.33
-155.34
-186.71
-213.72
-238.01
-263.28
-294.07
-334.76
-387.93
-453.38
-527.01
-600.87
-664.21
-705.77
-717.36
-697.39
-652.74
-597.42
-547.98
-517.13
-508.83
-517.04
-529.06
-531.99
-518.32
-488.47
-448.91
-407.85
-371.00
-339.98
-313.58
-290.23
-270.30
-255.82
-248.91
-249.60
-255.05
-260.60
-261.55
-255.19
-241.46
-222.64
-201.79
-181.44
-162.56
-144.52
-125.64
-104.27
-79.60
-51.95
-22.58
6.81
34.31
58.64
79.21
96.70
112.55
128.64
146.98
169.17
195.79
225.43
255.67
283.40
306.76
324.97
338.69
349.69
360.11
372.01
386.04
403.37
424.24
448.50
472.58
489.63
491.95
474.67
439.42
393.88
352.43
329.46
335.99
374.01
437.26
515.34
597.62
676.16
744.03
798.36
820.60
796.96
720.70
596.34
439.89
273.07
129.19
18.12
-60.70
-113.59
-147.01
-167.94
-185.49
-204.73
-227.26
-251.41
-275.74
-296.99
-313.52
-324.38
-329.88
-329.66
-321.13
-300.75
-265.75
-217.52
-158.91
-94.78
-29.70
31.92
86.18
130.01
160.64
176.33
176.15
162.54
140.17
114.98
91.96
74.16
62.64
56.72
54.82
54.82
55.34
55.27
53.38
47.77
36.11
16.62
-10.72
-43.40
-76.81
-105.50
-125.33
-135.03
-136.27
-132.23
-125.79
-118.28
-109.60
-99.36
-88.21
-78.28
-72.35
-72.38
-78.51
-89.04
-101.61
-114.53
-127.33
-140.33
-153.50
-165.61
-174.24
-176.79
-171.79
-159.60
-142.22
-122.35
-102.24
-83.13
-65.17
-47.84
-30.40
-12.30
6.67
26.12
45.01
61.86
75.18
84.24
89.49
92.70
96.34
102.85
113.78
129.54
149.50
172.27
195.97
218.26
236.65
249.17
255.53
258.11
261.75
272.00
292.27
321.37
353.05
378.14
388.36
379.73
353.73
315.75
271.76
225.46
177.50
126.85
73.16
18.25
-34.16
-80.34
-118.61
-150.22
-178.86
-208.92
-243.90
-285.33
-332.35
-382.01
-429.56
-468.95
-493.77
-499.06
-483.34
-450.11
-407.14
-363.44
-325.26
-293.43
-264.23
-233.04
-199.17
-168.19
-150.23
-155.15
-187.58
-244.78
-318.08
-396.65
-470.73
-533.01
-577.82
-600.25
-596.22
-564.06
-505.71
-426.73
-334.84
-237.41
-139.90
-45.64
43.30
125.05
197.54
258.50
305.84
337.74
353.40
353.69
342.24
325.24
309.67
300.74
299.53
302.85
304.60
299.20
283.66
258.27
224.54
182.74
131.27
68.51
-3.24
-76.77
-140.34
-182.50
-196.37
-182.55
-148.64
-105.02
-60.45
-18.54
19.73
54.09
81.61
96.85
93.45
66.81
17.07
-50.25
-124.61
-196.02
-249.78
-275.06
-266.16
-224.23
-157.42
-77.78
-5.03
54.24
99.26
131.27
150.10
154.57
144.93
121.11
84.26
36.55
-18.52
-78.84
-142.25
-205.71
-264.07
-310.84
-340.57
-350.54
-341.93
-318.26
-285.43
-248.68
-211.52
-175.17
-139.63
-104.96
-71.12
-37.54
-2.25
36.41
79.14
124.56
169.37
209.52
241.67
264.83
280.54
292.15
302.40
312.30
321.10
327.16
329.01
325.78
316.94
301.91
280.21
251.73
217.61
180.36
143.20
109.13
80.08
57.09
40.69
31.38
29.35
33.50
40.81
46.83
47.24
39.97
26.19
9.68
-5.33
-16.23
-22.90
-26.79
-28.93
-28.42
-22.50
-8.08
16.52
50.55
91.09
134.04
174.83
208.64
230.32
235.23
221.16
190.36
150.09
110.58
81.09
66.31
65.06
71.85
80.07
84.56
82.26
71.27
49.74
15.86
-30.75
-87.45
-148.28
-204.84
-248.22
-271.29
-270.02
-244.33
-198.17
-138.90
-75.80
-18.49
25.38
51.89
61.11
56.96
45.42
32.57
23.46
21.49
27.97
42.34
62.89
86.69
110.43
129.85
139.76
135.64
116.02
83.74
46.01
11.64
-13.34
-27.64
-34.83
-39.82
-47.73
-57.00
-61.73
-57.07
-39.01
-13.35
12.07
33.92
52.53
74.26
105.89
149.06
198.73
246.20
283.11
305.88
315.44
314.31
304.33
285.61
257.25
219.11
173.04
121.94
69.17
16.97
-33.94
-83.49
-131.55
-177.83
-221.92
-263.16
-300.88
-333.42
-358.40
-373.78
-378.85
-375.36
-367.37
-359.75
-355.88
-356.10
-357.22
-353.82
-340.54
-313.94
-273.57
-221.99
-163.74
-103.92
-47.03
3.97
47.74
84.10
113.20
135.19
150.06
157.77
158.59
153.22
142.69
128.02
110.13
89.79
68.12
46.82
28.21
14.60
7.45
6.52
9.89
14.89
19.74
25.07
33.98
50.50
76.80
110.73
145.29
170.95
179.82
169.40
143.86
111.91
82.56
61.34
48.61
40.95
33.94
24.72
12.88
-0.31
-13.36
-25.43
-36.03
-44.35
-48.71
-47.03
-38.33
-24.08
-8.56
2.50
4.06
-6.12
-26.41
-51.90
-76.12
-93.16
-99.21
-93.20
-76.52
-52.27
-24.47
2.54
24.45
37.31
38.27
26.51
4.19
-23.24
-48.07
-62.77
-62.73
-48.15
-23.81
3.27
27.07
45.08
58.55
70.64
83.90
98.61
112.99
124.76
132.67
136.97
138.74
139.15
139.09
139.49
141.52
146.41
154.56
164.99
175.56
183.99
189.21
191.60
192.22
191.40
187.72
178.26
160.21
132.58
96.96
56.94
16.64
-20.65
-52.84
-78.65
-96.95
-106.62
-107.13
-99.33
-85.76
-70.09
-55.89
-45.39
-39.08
-36.08
-35.07
-35.22
-36.43
-39.04
-43.03
-47.63
-51.50
-53.36
-52.65
-49.92
-46.71
-45.06
-46.75
-52.94
-63.97
-79.63
-99.51
-122.97
-148.73
-174.30
-195.75
-208.05
-206.44
-188.13
-153.91
-108.62
-60.24
-17.99
10.15
19.63
10.33
-13.70
-45.51
-77.39
-102.92
-118.50
-124.01
-122.22
-117.34
-113.14
-111.55
-112.21
-113.20
-112.43
-108.96
-103.37
-97.25
-92.20
-89.21
-88.61
-90.57
-95.54
-104.12
-116.40
-131.17
-145.83
-157.23
-163.07
-162.97
-158.42
-151.73
-144.61
-137.39
-129.16
-118.52
-104.33
-86.31
-64.90
-41.12
-16.31
8.02
30.31
49.27
64.18
75.27
83.66
90.92
98.55
107.39
117.50
128.16
138.27
146.68
152.64
155.98
157.12
156.86
155.94
154.74
153.16
150.78
147.10
141.82
134.96
126.80
117.76
108.33
99.06
90.47
82.87
76.17
69.74
62.61
53.87
43.06
30.45
16.77
2.89
-10.52
-22.93
-33.75
-42.09
-47.01
-47.93
-45.03
-39.37
-32.39
-25.41
-19.13
-13.75
-9.24
-5.84
-4.01
-3.98
-5.51
-7.77
-10.00
-12.00
-14.13
-16.94
-20.64
-25.07
-30.25
-36.79
-45.82
-58.26
-73.86
-90.89
-106.84
-119.71
-129.13
-136.35
-143.30
-151.16
-159.71
-167.64
-173.53
-176.72
-177.20
-175.01
-169.51
-159.35
-143.14
-120.71
-93.85
-66.17
-42.10
-25.06
-16.03
-13.16
-12.42
-9.48
-1.33
12.81
31.91
54.41
79.45
107.10
137.66
170.48
203.27
232.56
254.95
268.47
272.98
269.50
258.91
241.17
215.83
183.61
147.82
114.39
90.08
79.61
83.42
97.42
114.67
128.20
133.37
128.73
115.48
96.05
73.17
49.43
27.29
8.87
-4.48
-12.66
-16.86
-19.00
-20.93
-23.62
-26.80
-29.08
-28.41
-22.93
-12.05
2.70
17.48
27.25
27.90
18.44
1.97
-15.41
-27.40
-30.50
-25.71
-17.80
-13.11
-16.99
-32.35
-59.71
-97.82
-143.92
-193.51
-240.08
-275.81
-293.60
-289.70
-265.28
-226.06
-179.74
-132.92
-88.98
-48.02
-8.64
30.02
67.28
101.56
131.98
159.44
186.23
214.17
242.64
267.73
283.41
284.07
267.09
234.07
190.25
142.42
96.68
57.03
25.31
1.84
-13.75
-22.10
-23.97
-20.30
-12.37
-1.79
9.34
18.59
23.61
22.84
16.26
5.65
-5.96
-15.61
-21.67
-24.52
-25.94
-27.76
-30.82
-34.71
-38.68
-42.74
-47.99
-55.60
-65.53
-75.80
-83.00
-83.97
-77.40
-64.24
-46.74
-26.83
-5.28
17.55
40.01
57.76
64.56
54.93
27.49
-13.28
-58.11
-96.46
-120.66
-128.53
-123.19
-110.59
-96.24
-83.07
-71.35
-60.09
-48.93
-39.02
-32.41
-30.57
-32.91
-36.55
-37.50
-32.86
-22.45
-9.14
2.70
9.78
11.84
11.65
13.08
18.51
27.28
36.38
42.58
44.94
45.54
48.20
55.99
69.20
85.29
100.58
112.35
119.93
123.91
124.29
119.21
105.45
80.46
44.64
2.13
-40.50
-76.72
-102.28
-115.75
-117.92
-110.58
-96.04
-77.56
-59.67
-47.59
-45.69
-55.73
-76.23
-103.02
-130.89
-155.31
-173.25
-183.19
-184.96
-179.56
-169.14
-156.64
-144.77
-135.11
-127.42
-119.93
-110.56
-98.49
-84.79
-72.18
-63.31
-58.82
-56.18
-50.07
-34.51
-5.87
34.51
79.95
120.66
147.69
156.55
148.70
130.15
108.17
88.04
71.57
57.97
45.73
34.41
25.09
19.49
18.58
21.63
26.25
29.47
29.02
24.28
16.35
7.57
0.27
-4.14
-5.75
-5.94
-6.57
-8.91
-12.95
-17.28
-19.60
-17.58
-9.56
5.08
26.02
52.24
82.30
114.50
146.97
177.76
204.82
226.01
239.34
243.64
239.61
230.54
221.85
219.30
226.20
241.36
258.52
268.65
263.20
237.45
191.63
129.63
57.29
-18.85
-91.15
-150.60
-187.79
-196.44
-177.28
-139.67
-98.88
-69.89
-60.92
-70.12
-87.29
-99.36
-96.51
-75.82
-41.25
-0.92
36.54
64.68
80.65
84.81
79.85
69.38
56.43
42.95
29.73
17.06
4.95
-7.06
-20.25
-36.76
-58.34
-84.59
-111.50
-131.84
-137.27
-121.52
-83.17
-26.54
39.52
104.15
157.26
192.07
206.50
203.22
188.05
167.31
145.21
122.16
95.28
60.52
15.72
-37.84
-95.58
-151.59
-201.11
-242.28
-276.15
-305.73
-334.66
-366.28
-403.22
-446.56
-494.84
-543.23
-583.87
-607.87
-608.64
-584.42
-539.15
-480.81
-418.09
-357.37
-301.26
-249.54
-201.01
-155.24
-112.98
-75.37
-42.78
-14.06
13.12
41.24
72.15
106.69
144.38
183.83
222.73
257.73
284.20
296.80
291.06
265.37
222.58
169.93
117.11
73.01
42.81
26.61
20.28
18.21
16.27
13.69
12.76
17.04
29.28
50.15
78.34
111.57
147.31
182.51
212.98
233.60
239.60
228.81
203.36
169.78
136.80
111.89
98.44
94.87
96.08
96.13
90.91
79.24
62.63
44.36
28.29
18.01
16.13
23.71
39.80
61.68
85.68
108.38
127.22
140.61
147.49
147.05
138.90
123.49
102.48
78.52
54.39
32.12
12.51
-4.38
-18.15
-27.29
-29.51
-23.02
-8.16
11.85
31.77
46.27
52.09
49.20
40.35
29.67
20.76
15.59
14.27
15.58
17.76
19.13
18.51
15.20
8.97
0.01
-10.97
-22.74
-33.83
-42.97
-49.54
-53.74
-56.46
-58.83
-61.80
-65.81
-70.70
-75.82
-80.29
-83.17
-83.76
-81.76
-77.45
-71.58
-65.18
-59.16
-53.99
-49.54
-45.37
-41.16
-37.12
-34.02
-32.82
-34.11
-37.68
